Sensor1,Sensor2,Sensor3,Sensor4,Sensor5,Sensor6,Sensor7,Sensor8,Class
1,7,0,28,37,25,14,7,1
3,2,31,6,40,27,2,6,1
13,8,32,24,14,43,7,13,1
2,0,31,20,19,9,15,8,1
7,4,10,6,24,2,1,14,1
7,9,3,16,19,6,6,4,1
10,4,22,22,9,29,0,6,1
1,3,29,12,22,36,20,18,1
4,5,24,28,4,28,32,24,1
18,4,13,3,49,8,2,7,1
10,3,27,16,8,3,16,11,1
3,1,35,3,26,18,14,30,1
14,2,6,4,11,32,13,3,1
3,17,1,1,25,42,11,27,1
12,15,12,13,13,35,21,4,1
5,11,22,38,23,12,3,21,1
8,19,59,57,13,27,13,12,1
3,1,3,2,6,28,4,16,1
18,0,10,11,9,27,11,0,1
3,0,2,3,12,31,10,9,1
1,7,20,17,3,1,9,17,1
1,11,28,29,6,6,3,5,1
24,7,13,10,3,23,11,20,1
8,5,8,13,13,10,9,10,1
13,2,22,26,32,10,5,9,1
5,1,18,20,32,64,7,17,1
24,15,7,4,22,54,1,33,1
26,1,63,43,18,8,15,9,1
2,12,9,14,9,2,38,19,1
8,1,25,8,30,13,1,5,1
29,7,18,2,22,38,3,10,1
4,0,28,24,31,54,21,2,1
26,8,25,27,12,13,22,40,1
10,13,26,12,31,8,5,14,1
27,2,2,10,22,35,2,13,1
3,8,18,1,27,33,5,4,1
7,4,3,7,21,1,24,19,1
17,6,50,5,22,47,8,43,1
20,19,26,19,26,6,30,14,1
24,9,4,10,11,33,12,38,1
26,5,9,2,21,11,13,14,1
16,6,2,23,14,14,17,5,1
11,9,16,14,3,8,7,40,1
2,4,24,5,20,21,8,17,1
2,1,16,23,9,6,18,1,1
24,13,12,21,11,21,5,20,1
26,5,27,27,13,7,22,34,1
29,3,23,10,3,50,29,43,1
24,17,44,1,15,38,14,1,1
12,1,9,36,22,6,1,22,1
28,12,16,34,11,13,1,32,1
3,24,50,13,0,9,9,44,1
16,17,15,10,13,30,23,32,1
9,3,7,2,7,34,21,22,1
13,10,22,26,8,14,14,26,1
44,14,76,10,11,17,24,33,1
19,2,28,3,9,8,14,34,1
6,8,13,24,23,21,2,8,1
5,5,4,12,3,13,2,1,1
13,9,4,6,4,28,8,9,1
13,6,21,10,12,3,10,42,1
40,18,36,36,4,24,32,65,1
22,13,16,22,13,14,3,9,1
15,7,35,10,5,5,11,11,1
21,3,19,22,2,2,17,27,1
31,15,51,5,7,23,30,16,1
14,5,8,22,16,13,23,9,1
8,5,29,20,3,6,5,4,1
10,4,2,9,1,4,11,2,1
6,5,5,2,5,25,17,1,1
17,5,18,18,6,41,17,19,1
40,13,18,8,17,87,36,55,1
9,5,9,12,18,3,8,7,1
5,4,4,8,2,25,14,18,1
17,6,20,17,9,17,9,1,1
7,0,15,1,2,12,0,21,1
3,7,11,21,8,15,6,23,1
5,1,14,5,13,5,9,3,1
6,11,33,20,10,28,3,1,1
5,13,13,17,8,62,2,1,1
10,3,0,4,9,9,3,16,1
5,5,19,9,11,10,1,10,1
5,5,17,14,17,51,7,11,1
5,9,10,9,1,24,10,2,1
8,7,7,5,15,38,13,8,1
8,11,7,25,12,72,0,0,1
33,3,2,0,14,61,0,12,1
21,1,26,10,4,16,18,10,1
26,7,18,9,20,6,4,1,1
8,5,9,8,4,7,0,3,1
10,3,21,11,11,9,6,4,1
3,8,12,19,2,1,7,8,1
35,5,22,12,2,0,15,19,1
42,4,16,10,2,25,17,43,1
59,7,12,15,13,59,27,28,1
10,0,1,25,6,45,16,31,1
22,13,25,29,8,55,15,17,1
17,8,65,40,5,65,2,13,1
6,17,99,48,22,13,2,4,1
9,12,10,12,1,34,6,14,1
3,4,12,9,11,10,3,9,1
24,9,15,1,9,42,10,17,1
22,19,45,17,32,9,0,4,1
2,2,17,1,12,3,4,17,1
11,3,8,4,15,20,12,5,1
39,12,20,29,7,52,0,24,1
27,13,14,14,13,42,1,26,1
23,5,30,13,9,12,2,24,1
2,23,89,31,8,18,5,20,1
41,13,33,11,9,41,8,33,1
15,4,33,10,8,49,1,4,1
3,3,2,18,11,13,15,8,1
5,3,8,6,22,30,13,20,1
13,8,25,17,16,8,18,4,1
17,27,90,34,13,81,31,43,1
1,9,22,17,23,87,4,16,1
9,16,23,17,11,77,14,10,1
6,5,22,35,3,64,29,7,1
1,3,18,26,4,105,37,57,1
21,1,0,28,7,45,22,63,1
10,14,31,4,16,25,3,40,1
5,12,9,19,9,26,4,26,1
21,17,64,23,6,76,14,38,1
5,10,66,26,32,128,38,12,1
1,8,28,16,18,127,17,25,1
39,2,5,1,18,8,10,34,1
0,2,3,1,16,128,37,18,1
1,4,8,11,2,82,16,22,1
21,17,37,7,16,65,11,28,1
15,16,34,10,14,95,31,25,1
7,4,12,12,5,79,34,8,1
21,9,9,0,12,86,51,57,1
39,7,21,25,3,15,63,71,1
15,3,18,22,21,87,17,29,1
23,18,0,5,1,65,40,17,1
20,8,13,22,18,95,5,31,1
21,4,7,18,18,30,40,27,1
8,5,2,3,22,93,7,17,1
8,7,0,6,20,9,18,6,1
7,23,30,16,20,84,5,15,1
20,27,48,25,12,89,28,52,1
36,19,2,29,19,27,27,36,1
14,22,29,45,4,42,4,12,1
22,20,39,1,13,37,34,6,1
16,4,15,3,22,73,52,29,1
27,15,24,11,3,32,1,0,1
34,2,22,46,19,75,54,37,1
57,30,53,19,17,85,48,28,1
6,2,31,38,34,111,1,1,1
8,15,25,5,24,5,6,7,1
45,9,35,57,35,30,27,48,1
45,35,55,6,14,76,37,48,1
57,17,38,2,23,102,8,18,1
2,3,6,3,16,25,61,45,1
56,8,36,21,21,80,11,28,1
59,0,3,1,36,8,51,6,1
6,2,31,37,25,59,47,8,1
5,15,63,68,14,17,7,2,1
32,12,19,32,18,64,3,18,1
25,12,49,13,5,57,2,35,1
49,3,33,26,16,53,27,15,1
42,24,26,16,39,127,1,11,1
4,14,41,13,3,36,5,7,1
10,1,15,14,19,128,55,8,1
16,5,20,23,25,73,42,20,1
33,13,37,8,35,70,19,18,1
18,3,54,16,23,63,26,43,1
8,0,15,9,12,5,51,9,1
4,34,18,13,21,16,7,24,1
15,26,25,15,6,22,50,27,1
10,6,39,44,23,107,45,6,1
76,36,84,7,6,25,63,121,1
27,5,14,8,1,52,7,5,1
3,9,55,10,14,98,37,28,1
7,2,47,10,14,120,20,22,1
22,11,6,19,15,38,14,37,1
61,4,41,33,24,127,1,10,1
55,7,43,7,11,45,14,3,1
18,0,18,27,34,10,11,10,1
24,18,1,1,1,25,7,28,1
29,2,11,2,6,35,11,22,1
57,13,32,16,13,73,8,32,1
25,7,6,14,14,21,9,25,1
70,12,26,8,3,69,17,88,1
76,27,42,27,0,107,7,81,1
36,7,20,11,12,30,6,37,1
59,16,44,7,11,35,43,25,1
26,2,6,8,2,32,11,27,1
51,22,10,10,5,2,18,27,1
29,36,66,44,4,21,6,21,1
27,11,41,69,8,35,30,29,1
21,18,6,51,31,3,7,14,1
13,12,24,25,8,3,24,40,1
37,17,13,24,9,38,4,39,1
62,25,15,58,23,22,19,37,1
42,22,60,8,3,73,44,7,1
27,6,21,14,10,92,24,8,1
13,11,33,21,3,33,8,13,1
33,11,14,30,9,47,29,14,1
15,7,37,17,9,66,19,15,1
8,8,27,36,11,77,6,20,1
33,0,30,3,8,109,30,6,1
12,3,14,10,11,99,43,4,1
19,1,7,43,14,38,18,6,1
18,18,54,30,7,24,17,38,1
16,20,42,21,13,32,28,3,1
53,23,63,11,10,102,9,48,1
37,12,14,31,4,85,10,7,1
9,13,15,5,10,59,12,18,1
41,2,21,31,1,91,21,50,1
82,10,11,23,15,43,25,17,1
21,10,17,7,11,9,37,16,1
59,5,59,21,10,9,27,1,1
26,6,5,6,2,80,3,4,1
19,11,26,11,7,127,17,2,1
45,33,93,20,7,128,22,12,1
24,5,8,3,6,14,15,0,1
8,0,15,15,19,60,15,7,1
40,8,35,39,1,25,43,70,1
3,0,13,1,3,83,14,22,1
73,9,23,18,11,120,4,23,1
67,17,11,12,2,127,33,22,1
26,1,10,42,2,89,23,13,1
30,0,31,65,15,89,20,66,1
42,24,72,61,9,23,17,24,1
35,17,18,17,11,53,39,40,1
74,3,6,8,6,128,25,63,1
43,11,1,11,1,21,26,70,1
57,28,51,28,6,41,47,89,1
51,0,60,8,1,100,35,47,1
24,10,62,4,2,38,8,20,1
32,12,26,18,4,45,33,61,1
10,14,8,22,11,78,37,15,1
2,15,19,15,6,99,27,36,1
16,17,56,9,12,14,17,21,1
51,13,46,26,1,98,10,6,1
25,25,41,3,15,13,17,24,1
50,7,26,7,8,128,9,36,1
5,22,51,1,9,3,79,4,1
49,36,63,26,0,128,77,55,1
28,18,78,22,10,84,7,35,1
6,11,57,20,6,89,19,10,1
67,3,14,9,10,25,21,49,1
7,12,29,4,2,17,2,43,1
33,10,12,14,3,9,51,86,1
71,8,34,2,3,33,34,47,1
89,14,27,1,1,88,34,13,1
25,17,34,36,3,91,3,13,1
28,2,50,61,13,34,34,24,1
61,25,80,16,6,40,20,24,1
59,10,1,13,9,16,36,63,1
63,8,39,3,2,9,49,64,1
10,2,24,0,9,49,51,24,1
53,31,58,24,5,68,17,19,1
37,30,70,29,21,45,44,33,1
8,9,2,24,1,1,23,12,1
59,15,11,4,1,9,39,19,1
7,4,30,19,1,86,10,47,1
28,9,24,10,10,74,16,15,1
8,4,2,24,9,127,24,49,1
57,22,32,38,2,112,49,25,1
30,6,12,7,2,10,7,2,1
38,9,62,2,11,8,23,8,1
13,2,10,6,1,64,7,40,1
6,7,24,14,0,1,20,27,1
42,10,21,1,0,80,24,58,1
21,3,6,33,5,37,8,22,1
7,10,3,24,8,12,7,32,1
65,20,61,8,3,65,32,63,1
58,36,84,27,3,127,53,80,1
34,17,15,0,4,114,9,2,1
59,11,21,12,2,23,27,1,1
26,13,1,39,0,47,14,6,1
15,19,60,15,4,16,23,5,1
1,14,18,7,7,21,22,66,1
5,3,5,6,5,80,5,7,1
31,2,16,5,6,44,24,14,1
4,3,36,3,3,39,22,23,1
26,12,60,21,1,76,34,51,1
31,6,5,7,10,72,0,9,1
3,9,42,8,1,13,3,8,1
8,14,44,14,4,47,1,49,1
15,25,33,22,4,7,10,8,1
48,16,37,28,10,6,11,30,1
67,9,40,36,1,45,9,57,1
14,12,19,37,1,59,8,56,1
17,3,5,30,7,6,2,26,1
26,13,29,38,2,69,29,31,1
34,6,35,14,0,46,1,13,1
27,2,4,4,7,17,15,28,1
16,5,3,5,5,46,27,28,1
27,2,5,11,5,34,11,16,1
49,2,0,10,2,26,12,28,1
83,17,3,7,1,42,3,37,1
4,4,19,5,0,23,5,21,1
25,3,47,4,2,33,15,18,1
6,8,16,8,0,3,14,19,1
54,6,14,6,5,34,9,4,1
9,0,14,10,0,23,25,66,1
17,9,29,21,1,43,3,6,1
47,5,12,19,3,89,12,46,1
52,20,21,11,4,27,14,51,1
31,21,9,3,4,11,3,15,1
42,9,3,21,3,107,39,17,1
2,1,3,9,2,93,9,10,1
7,4,2,10,3,76,7,3,1
17,18,7,5,8,19,19,37,1
37,17,20,12,7,6,38,85,1
1,14,20,7,3,57,16,2,1
29,3,5,17,1,65,4,40,1
3,5,1,20,2,24,5,23,1
16,17,10,23,3,53,11,19,1
5,4,3,10,4,95,15,16,1
17,5,36,3,2,125,27,42,1
10,4,32,21,10,31,14,11,1
48,7,3,17,2,76,3,22,1
10,14,8,2,7,73,6,4,1
15,9,13,2,11,27,17,30,1
1,4,3,22,7,9,8,5,1
11,12,31,3,10,32,32,47,1
3,12,32,31,5,9,65,97,1
1,1,16,1,1,23,2,49,1
14,0,16,6,1,31,4,15,1
20,2,13,10,4,16,8,8,1
17,4,17,10,5,31,34,50,1
8,13,14,49,1,48,8,4,1
19,4,9,27,8,5,33,33,1
56,11,20,33,8,3,16,28,1
47,16,52,29,7,50,19,20,1
5,10,13,11,8,24,16,13,1
16,8,32,11,12,39,7,18,1
34,4,13,12,2,9,15,20,1
49,12,37,3,3,112,6,20,1
14,5,5,42,10,70,17,58,1
26,23,42,10,10,28,33,79,1
16,4,26,7,13,62,24,24,1
40,23,38,52,12,18,30,53,1
20,0,0,7,2,51,30,16,1
42,19,50,21,5,16,30,25,1
19,1,17,2,4,76,1,33,1
13,4,10,7,13,74,15,3,1
55,38,46,52,7,94,63,45,1
41,23,27,29,3,121,76,34,1
42,8,9,9,6,51,13,24,1
15,2,0,1,10,1,2,17,1
37,12,19,43,10,35,17,10,1
25,13,49,35,6,42,52,27,1
7,1,13,14,7,11,23,46,1
9,4,27,10,15,85,18,11,1
50,13,10,12,12,62,36,57,1
89,20,13,6,22,67,58,80,1
99,5,6,30,4,32,27,52,1
19,34,72,78,8,84,28,12,1
15,8,16,19,3,24,5,4,1
86,13,22,20,6,4,3,32,1
67,8,27,14,26,51,35,48,1
43,5,39,12,3,43,11,34,1
33,7,12,19,1,35,39,36,1
14,14,31,5,0,26,19,18,1
62,16,19,2,13,11,44,64,1
8,26,33,21,8,1,0,40,1
10,10,16,5,11,42,13,6,1
16,12,13,3,7,24,10,46,1
6,13,12,4,10,32,14,7,1
63,1,32,34,11,35,48,50,1
62,4,51,24,2,19,12,14,1
6,19,39,15,3,26,36,1,1
25,12,52,23,8,78,7,8,1
5,15,24,3,11,71,11,36,1
12,10,36,10,13,66,23,27,1
63,9,13,5,1,59,49,17,1
29,8,6,21,6,66,28,4,1
16,13,27,42,4,34,6,6,1
31,4,26,16,1,52,17,28,1
60,12,39,32,9,9,30,20,1
12,6,7,4,2,72,27,19,1
15,5,13,3,10,6,2,20,1
24,4,10,7,1,57,22,37,1
35,16,7,11,4,8,6,8,1
5,1,20,2,6,83,15,22,1
41,28,63,48,1,20,39,67,1
12,8,31,10,3,7,28,46,1
22,26,52,27,6,4,35,18,1
38,24,18,20,9,27,34,54,1
22,9,5,19,0,51,2,18,1
8,4,18,5,6,24,14,24,1
14,2,10,12,13,10,12,12,1
20,9,31,17,6,60,38,37,1
49,35,65,39,3,60,42,32,1
4,4,36,21,9,28,32,26,1
2,9,39,33,12,37,33,37,1
19,3,1,10,5,11,7,0,1
41,17,68,3,5,72,11,14,1
7,19,85,62,10,7,41,46,1
18,8,10,14,9,42,8,3,1
26,13,22,40,7,108,7,16,1
15,27,71,98,23,117,42,25,1
81,11,18,11,2,101,29,41,1
51,10,8,23,11,114,27,45,1
19,11,37,59,6,68,19,27,1
20,4,23,26,8,91,44,74,1
24,4,30,3,16,8,20,42,1
61,13,31,23,5,46,46,63,1
36,3,1,15,5,32,7,26,1
16,5,11,14,6,85,14,5,1
14,2,14,17,28,127,1,3,1
37,9,26,9,3,38,19,6,1
36,1,17,10,11,91,6,22,1
51,23,12,10,1,43,16,33,1
34,32,87,31,0,4,21,45,1
64,13,4,4,7,89,61,99,1
52,10,35,8,4,102,1,26,1
5,14,9,31,5,22,75,84,1
71,6,54,46,1,71,13,38,1
85,19,39,2,2,88,4,51,1
15,14,35,13,8,104,38,108,1
14,3,36,5,7,24,6,0,1
2,15,17,28,9,10,23,39,1
29,5,9,43,6,1,13,22,1
4,22,35,0,6,41,25,5,1
16,4,29,21,2,56,30,48,1
95,21,51,15,10,65,28,67,1
60,1,20,14,16,16,12,47,1
34,3,8,6,8,122,25,14,1
6,9,13,0,10,59,68,18,1
16,4,0,18,17,18,21,9,1
12,13,41,9,6,33,4,11,1
9,1,1,6,17,11,30,11,1
22,6,44,38,2,92,3,2,1
44,29,34,86,13,77,25,3,1
4,16,12,21,0,77,12,55,1
43,1,23,15,8,96,5,41,1
34,6,10,21,2,23,5,1,1
36,29,100,65,16,74,67,61,1
81,22,35,48,0,37,64,96,1
14,5,8,30,5,75,37,26,1
10,18,8,19,12,17,13,31,1
38,2,1,38,5,56,48,43,1
48,17,2,3,0,27,15,13,1
40,21,35,20,1,23,26,7,1
61,9,21,41,1,1,3,9,1
19,12,17,46,8,43,7,36,1
23,17,26,58,12,72,5,32,1
43,15,7,11,11,23,36,85,1
3,17,13,8,7,80,17,17,1
11,17,17,2,6,39,11,60,1
39,23,46,34,7,36,39,9,1
37,9,3,15,1,13,19,43,1
42,5,15,5,2,69,27,26,1
2,8,21,14,8,17,39,40,1
25,1,31,7,11,21,27,32,1
28,24,15,43,3,52,16,17,1
74,57,88,56,4,32,7,6,1
7,14,10,22,8,44,18,5,1
31,3,4,3,2,23,11,39,1
29,11,19,34,5,13,2,31,1
32,6,18,26,12,29,22,28,1
72,4,29,18,2,85,18,45,1
39,8,13,13,3,106,14,64,1
28,19,29,9,0,32,6,1,1
15,5,26,10,1,19,36,30,1
47,1,9,4,2,73,18,13,1
47,16,30,42,1,5,15,18,1
1,11,21,4,4,33,2,29,1
0,15,25,5,0,15,7,9,1
70,11,21,14,8,51,10,13,1
15,8,22,3,3,15,37,81,1
4,7,35,0,14,7,9,51,1
42,5,25,12,9,6,0,16,1
26,6,18,36,5,27,3,27,1
3,5,9,18,6,43,19,29,1
11,1,25,7,12,23,27,18,1
29,37,7,46,16,3,19,45,1
45,25,9,44,6,30,38,65,1
27,11,11,20,1,29,2,4,1
7,12,40,0,12,10,25,48,1
6,7,5,10,3,3,7,10,1
40,0,3,9,4,40,5,35,1
3,13,22,4,11,3,17,35,1
3,5,36,17,8,8,9,12,1
10,13,37,12,7,44,41,7,1
6,4,44,39,5,85,4,40,1
35,19,13,0,6,42,13,89,1
12,4,34,18,8,127,16,30,1
6,1,2,7,7,39,2,17,1
15,2,2,57,5,76,18,18,1
86,28,14,15,14,12,30,60,1
45,14,14,9,2,6,12,27,1
64,3,62,6,7,24,23,94,1
1,19,43,4,3,65,3,14,1
49,11,3,1,12,37,11,63,1
9,6,39,25,6,25,25,27,1
8,7,35,15,8,29,18,45,1
22,23,44,1,14,20,5,2,1
23,4,4,8,10,18,17,19,1
4,2,4,27,3,58,9,30,1
44,13,43,19,9,79,46,36,1
62,5,7,19,14,45,23,23,1
52,26,52,45,7,8,70,75,1
50,10,16,8,7,13,4,1,1
25,6,30,14,7,13,18,12,1
3,9,26,16,6,71,45,45,1
30,15,59,8,7,46,5,18,1
22,17,65,6,7,117,47,41,1
28,5,28,0,2,25,13,27,1
6,12,22,15,13,51,15,27,1
46,2,21,6,20,9,3,30,1
24,21,28,37,13,10,18,3,1
43,26,31,26,13,12,5,60,1
26,22,59,40,8,73,22,76,1
26,5,35,18,6,21,19,12,1
56,7,21,7,14,2,4,6,1
9,17,0,6,4,2,16,35,1
18,23,45,9,3,1,21,48,1
10,12,31,27,0,62,5,11,1
44,18,66,27,12,127,5,37,1
62,1,22,20,12,66,27,52,1
5,34,25,23,9,69,17,18,1
3,2,15,17,3,24,4,14,1
20,27,78,31,1,48,11,26,1
5,32,99,29,3,43,31,36,1
28,8,11,32,0,7,30,2,1
34,3,3,24,2,15,26,9,1
7,2,12,3,4,14,4,3,1
29,6,19,10,3,8,14,13,1
2,3,1,23,1,13,17,37,1
13,8,2,24,3,65,8,11,1
19,28,50,56,3,17,17,68,1
11,23,19,10,7,76,9,7,1
24,1,0,13,2,81,8,12,1
15,19,33,8,11,54,23,41,1
16,14,37,2,13,44,2,27,1
82,28,15,14,10,48,28,35,1
5,5,2,1,2,11,10,32,1
19,11,19,12,6,24,3,15,1
61,14,23,3,9,50,10,41,1
4,5,27,8,1,34,26,0,1
4,1,21,22,2,9,19,16,1
12,18,24,36,6,13,29,36,1
12,12,46,20,2,29,11,29,1
18,17,16,16,4,42,39,37,1
1,1,17,28,4,7,2,10,1
37,9,10,37,17,42,14,23,1
25,24,9,20,11,33,25,34,1
5,15,87,27,2,56,4,12,1
48,36,51,81,1,7,3,38,1
15,9,28,7,17,40,39,66,1
38,12,24,2,10,36,18,7,1
65,25,15,34,3,10,33,50,1
6,23,18,13,9,39,7,17,1
6,13,45,26,6,21,1,11,1
23,25,6,4,6,41,24,25,1
8,16,39,12,6,28,3,6,1
22,21,59,19,2,71,11,36,1
14,5,27,12,5,69,51,52,1
2,8,19,29,0,46,34,37,1
37,24,52,57,8,54,24,50,1
17,3,3,4,14,3,9,12,1
14,1,10,38,16,34,6,10,1
13,0,60,25,3,3,16,3,1
25,13,2,2,10,16,10,2,1
8,17,34,3,10,52,9,5,1
64,0,37,8,9,33,7,22,1
51,17,21,18,15,12,16,8,1
62,7,7,20,13,123,18,22,1
48,6,6,26,7,100,19,5,1
43,1,47,4,3,3,17,45,1
19,6,37,17,15,79,25,43,1
3,4,8,8,5,15,27,25,1
19,12,26,25,4,95,35,30,1
17,7,11,7,15,11,17,23,1
3,15,4,50,5,77,37,1,1
6,8,25,40,5,8,12,7,1
11,7,57,29,7,58,34,57,1
53,33,79,38,7,78,68,97,1
17,24,62,39,18,36,34,31,1
3,15,50,6,4,9,29,74,1
26,5,8,12,2,54,33,120,1
19,14,1,33,9,17,23,15,1
18,2,2,16,0,16,6,1,1
22,15,9,4,2,31,18,36,1
6,4,14,41,7,42,21,62,1
19,0,22,6,16,0,33,73,1
14,18,43,12,3,18,2,14,1
1,6,6,22,4,28,0,1,1
21,10,23,32,5,22,23,27,1
30,8,54,13,1,63,3,1,1
26,9,40,5,7,67,4,40,1
20,7,29,11,3,2,30,74,1
12,6,22,26,3,49,29,45,1
54,9,6,17,2,14,42,91,1
61,15,9,0,4,34,2,70,1
34,7,3,9,13,61,14,12,1
58,15,10,5,3,45,37,41,1
38,12,26,24,9,3,40,52,1
13,6,7,2,1,12,3,24,1
1,11,36,28,5,8,3,7,1
6,3,15,27,0,24,17,28,1
24,25,24,4,1,12,0,13,1
32,7,5,3,7,63,16,35,1
3,6,7,2,4,23,10,20,1
0,10,21,12,3,31,4,11,1
7,7,25,12,19,19,13,8,1
25,7,26,18,5,32,29,63,1
19,0,2,4,10,8,32,72,1
30,1,10,4,1,1,5,0,1
9,7,0,1,4,14,23,58,1
43,14,11,27,5,19,27,37,1
15,7,10,3,3,29,4,5,1
18,5,37,2,7,3,4,9,1
66,14,5,10,7,7,9,28,1
29,14,46,2,2,1,1,13,1
29,6,10,1,7,26,5,4,1
12,16,45,11,2,21,24,58,1
5,12,2,10,3,24,12,27,1
40,24,45,19,5,2,32,53,1
13,12,10,9,12,0,8,11,1
27,2,9,8,0,43,17,11,1
12,17,2,11,3,45,2,53,1
4,3,74,15,15,46,2,18,1
40,21,31,24,1,38,8,70,1
24,1,16,19,4,20,29,45,1
12,13,11,2,12,22,8,11,1
18,9,32,18,4,16,2,15,1
5,8,25,33,2,5,21,16,1
59,7,5,15,2,18,11,15,1
71,13,42,2,4,41,37,23,1
11,15,43,6,6,17,1,14,1
19,7,4,4,19,59,7,21,1
12,24,33,28,7,26,2,13,1
21,11,16,13,5,12,25,68,1
23,20,19,26,5,3,1,11,1
27,4,17,4,15,19,14,18,1
6,3,14,10,9,3,10,16,1
12,3,0,16,12,5,23,15,1
35,8,3,20,17,55,11,12,1
61,7,4,10,5,30,58,60,1
0,6,2,0,6,2,5,6,1
45,12,35,32,8,20,3,22,1
1,12,41,65,4,4,4,35,1
8,2,1,21,2,28,32,25,1
25,14,5,17,9,12,16,19,1
5,2,1,11,1,9,4,27,1
58,32,1,1,8,12,20,48,1
20,10,15,2,1,6,9,6,1
3,2,16,6,3,31,5,5,1
23,13,92,5,39,8,39,62,1
1,1,3,4,19,19,14,0,1
64,8,4,6,5,41,20,71,1
32,13,57,0,12,16,13,2,1
48,8,21,17,9,22,22,37,1
23,13,3,6,7,12,0,0,1
30,2,13,10,2,18,7,32,1
11,16,13,5,5,13,20,59,1
59,13,35,6,4,30,9,48,1
4,13,45,6,1,11,1,20,1
32,3,27,6,10,28,5,9,1
2,3,19,8,7,0,19,51,1
20,1,12,43,8,36,18,55,1
24,2,6,30,7,67,22,13,1
52,1,20,27,9,43,3,8,1
69,6,11,11,0,18,1,17,1
4,6,5,7,0,20,18,22,1
55,9,8,22,3,66,1,9,1
3,10,13,28,1,7,4,49,1
28,17,22,11,13,82,45,87,1
12,13,2,12,13,23,24,17,1
41,10,18,4,30,31,2,16,1
51,2,10,2,10,18,13,33,1
1,2,6,7,16,19,36,50,1
77,12,55,41,19,26,32,72,1
49,17,70,59,10,48,53,19,1
15,3,8,9,2,11,3,5,1
9,4,8,18,0,12,3,13,1
22,7,5,25,13,3,27,16,1
54,37,67,38,1,71,6,5,1
24,4,10,3,0,33,11,9,1
11,1,2,5,4,14,16,29,1
32,12,18,1,8,9,12,30,1
7,15,40,14,3,37,18,41,1
13,5,11,6,11,126,3,81,1
38,1,10,30,2,59,35,23,1
14,7,28,16,19,62,6,24,1
10,5,8,20,16,95,3,26,1
28,1,12,13,6,33,2,5,1
16,13,17,25,1,2,12,51,1
35,12,25,1,2,26,7,24,1
30,4,18,54,17,20,11,46,1
14,10,6,23,7,8,11,21,1
10,7,8,6,3,51,1,14,1
20,15,24,34,0,22,10,7,1
18,0,14,25,14,20,15,35,1
42,1,1,8,15,61,2,7,1
31,9,13,10,6,77,24,20,1
52,16,37,15,20,53,20,26,1
50,11,16,24,13,25,3,4,1
10,9,6,19,4,26,25,35,1
28,7,9,17,6,13,20,55,1
29,6,1,14,5,22,1,29,1
12,3,24,10,16,30,15,5,1
25,5,31,2,11,12,11,25,1
7,0,4,9,8,9,19,9,1
10,9,38,23,17,13,17,17,1
34,14,48,16,5,17,18,64,1
10,27,54,37,3,16,34,14,1
41,51,59,42,8,17,50,73,1
1,11,23,1,3,0,3,18,1
38,8,11,24,29,7,5,43,1
24,13,6,7,13,34,1,19,1
21,2,1,17,1,22,33,53,1
52,16,11,5,10,6,19,51,1
14,2,12,21,13,15,17,6,1
68,12,7,21,5,94,4,14,1
53,16,9,8,9,38,15,40,1
27,4,5,3,8,14,17,26,1
24,13,11,2,1,38,5,12,1
31,13,5,3,4,21,2,4,1
4,4,4,11,13,34,11,30,1
15,2,4,0,2,12,4,5,1
21,12,35,15,8,45,30,9,1
7,37,87,60,7,8,7,44,1
19,12,36,1,11,19,4,16,1
38,9,22,33,17,22,32,32,1
15,5,2,1,2,10,12,20,1
9,2,22,13,8,81,10,1,1
23,10,11,5,3,2,3,48,1
49,6,0,9,10,26,10,13,1
24,1,5,12,1,9,20,20,1
19,1,1,4,3,26,7,25,1
43,4,9,12,5,26,16,24,1
33,3,7,11,6,20,18,45,1
62,11,10,4,5,14,2,0,1
13,17,8,10,3,33,11,6,1
36,14,0,5,0,46,22,22,1
9,14,3,6,6,26,9,25,1
61,13,2,15,10,11,3,49,1
7,4,2,30,8,44,18,63,1
34,1,25,11,4,64,16,27,1
77,4,36,3,13,115,7,17,1
45,6,17,15,15,28,3,27,1
7,1,9,9,10,3,1,30,1
12,5,1,7,15,16,16,7,1
60,8,7,3,3,32,14,12,1
26,17,12,6,5,54,25,21,1
18,4,9,46,25,26,11,13,1
17,19,3,13,10,14,6,31,1
23,12,25,4,7,25,15,25,1
11,0,21,11,33,74,16,4,1
12,5,49,6,19,40,11,8,1
25,8,44,6,1,26,15,36,1
62,2,18,3,3,18,2,22,1
6,0,3,5,13,19,11,18,1
50,25,94,56,4,19,58,85,1
87,43,62,56,9,57,75,75,1
23,5,13,25,2,62,12,35,1
8,1,2,36,0,22,10,14,1
7,15,4,45,27,44,8,26,1
30,16,31,13,2,33,33,30,1
20,15,7,20,16,4,16,5,1
31,11,4,9,3,11,3,48,1
20,2,1,17,8,79,11,28,1
15,12,21,6,5,58,2,20,1
41,7,31,1,8,36,26,55,1
35,11,10,4,7,5,3,16,1
12,5,14,14,6,2,13,4,1
3,3,25,20,3,73,10,2,1
15,15,26,17,22,61,2,23,1
41,1,1,14,16,52,29,11,1
4,17,17,33,2,76,42,44,1
47,10,17,34,9,13,4,12,1
18,6,14,38,3,27,38,52,1
26,11,13,9,2,57,28,14,1
1,5,15,32,13,6,28,46,1
14,3,13,36,5,63,23,30,1
56,5,4,0,16,31,14,33,1
66,0,31,9,11,15,4,11,1
5,8,27,19,12,26,16,39,1
10,18,9,23,17,36,29,40,1
93,21,61,20,10,99,9,6,1
119,22,9,4,13,30,13,4,1
36,7,18,1,6,21,7,61,1
16,8,8,27,10,29,8,8,1
1,17,61,16,10,4,18,30,1
19,12,10,2,8,11,8,13,1
17,6,26,13,17,66,10,29,1
69,23,2,10,18,13,40,39,1
36,12,19,14,20,33,10,27,1
26,15,52,31,9,34,8,36,1
17,11,33,3,6,96,10,4,1
49,5,10,11,1,13,5,60,1
22,9,11,8,2,12,4,17,1
8,21,12,14,11,42,1,26,1
36,23,38,17,16,19,20,35,1
38,22,60,19,5,10,36,31,1
12,9,29,40,19,63,6,24,1
58,17,45,31,16,24,30,46,1
19,24,23,9,6,11,4,0,1
48,9,41,27,4,25,24,14,1
20,2,38,25,22,60,21,60,1
17,6,12,11,1,7,29,64,1
13,7,16,27,13,3,11,19,1
50,7,11,24,3,23,3,27,1
26,13,4,5,21,28,4,0,1
14,13,41,9,8,0,9,17,1
23,3,11,20,10,9,42,68,1
29,3,15,12,7,71,24,42,1
17,12,38,29,2,34,7,23,1
13,18,16,2,21,55,11,2,1
43,16,42,7,1,65,9,46,1
66,9,27,12,13,19,17,73,1
37,11,11,16,6,3,33,20,1
45,15,8,38,14,7,48,43,1
8,7,10,9,11,50,27,16,1
58,0,19,16,3,53,35,43,1
37,18,13,62,2,13,7,11,1
34,2,12,4,6,39,35,19,1
5,5,18,20,10,68,13,2,1
8,10,7,16,10,30,8,14,1
7,14,8,29,9,43,3,15,1
31,13,45,34,12,0,14,35,1
33,21,29,7,1,26,56,46,1
17,15,28,1,7,56,7,22,1
34,21,30,49,2,37,36,19,1
1,26,45,45,19,43,4,2,1
14,5,18,14,5,4,10,3,1
48,12,27,21,19,7,14,16,1
58,21,23,7,4,73,31,51,1
44,4,48,24,29,127,19,42,1
15,3,6,41,9,83,12,7,1
44,2,0,18,5,60,31,18,1
47,20,56,29,5,98,55,39,1
55,6,16,5,1,14,21,57,1
109,17,1,10,2,51,28,71,1
51,17,19,17,7,28,24,5,1
50,11,18,4,4,62,2,8,1
2,2,10,43,12,40,51,39,1
37,8,54,23,11,20,22,18,1
60,31,50,18,2,71,41,62,1
68,2,9,12,22,67,16,28,1
45,5,50,5,1,25,7,16,1
51,12,12,22,3,29,28,16,1
16,15,41,38,10,68,21,20,1
21,20,34,42,12,80,29,22,1
15,6,8,15,4,74,21,24,1
42,1,3,29,6,31,22,31,1
34,6,8,23,6,46,12,5,1
26,1,2,12,2,48,20,15,1
27,13,9,13,9,2,25,25,1
33,17,40,17,25,67,19,9,1
35,15,53,7,11,48,49,58,1
32,5,52,23,13,37,21,30,1
1,3,12,1,18,35,35,22,1
32,5,5,7,21,53,22,39,1
38,17,45,2,13,47,14,11,1
7,5,11,11,1,84,19,4,1
66,23,57,20,23,32,33,56,1
17,21,46,3,21,3,3,57,1
32,12,24,18,17,10,1,26,1
6,4,20,12,10,106,45,39,1
53,6,12,5,13,47,20,20,1
33,6,20,4,4,20,10,3,1
9,1,19,1,4,30,1,2,1
3,2,20,5,13,83,3,16,1
28,10,45,3,7,42,2,15,1
1,0,22,14,6,17,42,68,1
61,20,1,10,2,15,42,50,1
15,14,18,10,13,48,31,105,1
25,13,15,21,10,5,4,21,1
15,0,13,20,6,28,23,22,1
65,34,50,28,17,10,30,56,1
43,10,9,9,19,88,52,68,1
8,6,28,11,8,26,14,16,1
1,5,23,6,8,21,18,13,1
46,25,25,19,13,26,23,33,1
14,1,13,25,1,56,23,13,1
3,14,6,39,16,64,12,10,1
32,12,6,19,1,26,11,22,1
47,14,34,25,16,2,4,12,1
2,5,18,1,2,19,2,4,1
32,14,46,14,4,68,3,10,1
35,4,2,3,7,32,17,10,1
20,1,5,8,13,16,15,23,1
5,7,24,12,10,24,31,34,1
6,18,16,11,5,8,10,43,1
19,13,4,21,9,38,59,108,1
5,13,46,11,8,20,1,10,1
42,16,31,8,9,1,24,71,1
28,0,4,15,9,36,1,57,1
14,1,11,13,7,20,9,13,1
7,1,14,2,14,11,2,4,1
12,9,0,3,3,23,0,7,1
31,15,20,46,10,14,27,58,1
17,45,62,74,6,11,21,26,1
40,1,2,24,6,18,9,34,1
20,2,22,1,1,30,13,18,1
26,1,7,8,5,13,2,13,1
32,22,18,46,12,30,22,44,1
1,16,30,33,6,9,20,28,1
49,25,7,7,14,38,22,26,1
14,2,22,24,20,127,15,59,1
24,20,15,11,12,24,15,25,1
18,7,11,6,3,23,19,45,1
56,2,21,24,18,55,21,69,1
19,0,28,4,7,9,9,12,1
55,26,28,6,4,13,19,21,1
33,8,7,13,1,21,9,17,1
41,0,2,5,11,7,1,12,1
1,14,33,21,3,21,2,6,1
2,18,55,57,11,11,8,2,1
18,1,25,20,12,14,21,2,1
17,4,0,6,6,14,8,18,1
38,17,21,14,0,13,9,66,1
30,0,5,18,17,38,14,34,1
15,9,5,3,6,40,11,17,1
0,5,25,7,1,12,6,12,1
16,5,55,9,26,16,22,59,1
36,4,3,1,7,18,4,13,1
9,5,0,9,18,29,36,4,1
20,3,21,6,15,47,2,22,1
9,5,5,3,17,57,3,15,1
2,18,35,22,6,13,1,30,1
4,4,7,0,0,37,0,7,1
3,13,20,18,5,17,10,19,1
4,15,14,5,3,11,19,37,1
28,23,11,10,18,46,24,42,1
65,27,8,1,15,52,19,11,1
5,5,4,18,5,1,3,3,1
5,4,21,5,16,63,16,8,1
31,9,15,0,10,14,5,12,1
8,11,10,3,7,18,13,19,1
19,5,13,13,12,4,4,10,1
3,6,35,12,8,22,15,25,1
15,14,22,17,1,33,2,26,1
18,5,1,4,4,13,8,0,1
53,12,9,38,8,82,19,62,1
11,5,57,9,6,26,7,8,1
3,2,27,4,1,65,14,13,1
1,9,13,5,11,17,24,13,1
39,11,28,5,2,21,18,8,1
18,2,13,8,8,35,2,5,1
12,5,7,1,26,33,26,36,1
19,9,4,9,10,48,2,44,1
18,2,8,13,19,72,1,38,1
14,10,37,19,13,59,1,11,1
5,6,14,14,5,9,6,4,1
4,3,11,6,7,5,37,59,1
2,9,17,16,19,58,35,81,1
8,7,11,27,8,21,5,28,1
7,16,72,8,11,23,16,0,1
23,14,43,25,9,52,57,56,1
10,4,9,14,2,26,28,37,1
5,4,19,38,11,43,17,17,1
29,18,9,16,10,68,21,22,1
45,2,22,8,10,8,1,9,1
11,8,25,16,22,35,4,48,1
30,16,19,30,13,127,11,3,1
30,4,15,12,1,20,25,38,1
17,16,10,6,13,25,38,45,1
14,4,12,7,21,0,8,30,1
23,0,9,17,1,95,5,16,1
1,5,22,4,14,62,17,30,1
6,4,11,32,29,46,1,65,1
9,2,20,8,12,4,5,4,1
15,4,4,4,0,16,6,28,1
6,11,14,17,23,9,8,3,1
24,3,13,12,43,52,16,30,1
37,5,6,9,20,51,21,46,1
4,1,12,5,18,2,2,13,1
18,30,49,23,8,1,2,10,1
11,19,43,22,24,9,21,36,1
18,8,4,13,6,16,1,3,1
4,3,8,8,6,45,16,22,1
10,13,6,1,16,51,3,22,1
42,4,9,9,4,35,13,49,1
10,2,7,22,1,37,13,9,1
59,4,12,6,32,10,34,67,1
5,3,11,17,11,11,17,31,1
7,3,29,8,8,14,7,36,1
14,26,41,23,6,65,13,47,1
28,16,53,20,17,56,24,23,1
20,24,51,20,6,21,18,19,1
13,9,6,18,14,47,7,2,1
10,1,41,7,29,29,8,5,1
8,0,6,7,18,3,19,24,1
10,1,25,23,20,5,16,35,1
13,2,4,21,27,22,12,15,1
6,0,3,29,1,19,1,37,1
28,2,1,13,9,78,15,57,1
8,2,20,17,8,51,3,22,1
52,1,18,14,4,56,30,29,1
7,11,24,27,1,19,4,24,1
13,9,10,15,8,3,7,11,1
14,12,12,16,1,61,22,42,1
5,6,15,17,3,51,3,38,1
45,12,8,39,26,29,28,4,1
34,26,72,69,13,19,20,60,1
10,4,7,2,14,15,7,14,1
24,3,12,4,1,79,2,25,1
13,10,5,22,33,92,31,32,1
6,8,11,15,6,13,9,27,1
25,3,15,10,1,14,22,45,1
40,5,13,2,11,12,13,36,1
38,14,23,4,4,4,12,7,1
3,6,43,7,1,53,11,31,1
4,14,30,19,20,10,13,43,1
25,7,12,1,5,36,45,44,1
19,0,12,1,13,3,0,21,1
5,8,3,12,7,40,4,13,1
3,5,10,3,6,18,2,18,1
23,5,13,2,1,5,16,6,1
0,13,24,11,15,12,6,2,1
5,11,8,10,1,15,14,16,1
3,8,8,3,12,22,18,17,1
2,3,2,4,4,20,10,16,1
6,21,46,13,1,5,1,15,1
12,32,81,39,8,53,14,24,1
4,11,29,5,4,38,3,5,1
5,6,20,23,1,5,0,12,1
17,5,6,22,5,5,6,29,1
13,11,9,2,2,8,4,14,1
6,2,7,10,5,22,6,13,1
34,13,11,10,13,34,30,18,1
6,4,7,12,15,33,8,16,1
19,10,28,6,14,107,7,35,1
25,2,5,1,4,20,15,19,1
22,0,15,2,18,56,17,6,1
25,8,8,6,7,68,24,12,1
19,5,12,15,7,47,3,2,1
14,5,6,1,4,16,1,11,1
6,8,6,7,11,12,11,5,1
12,4,12,3,4,32,10,39,1
43,17,1,11,3,59,0,51,1
1,13,23,12,6,91,30,12,1
20,11,41,2,14,68,6,2,1
10,4,9,25,23,42,3,22,1
23,8,22,4,7,5,14,27,1
38,13,3,2,5,7,5,5,1
23,5,11,1,0,7,6,39,1
1,3,22,1,5,23,16,17,1
6,15,39,6,19,51,11,33,1
11,10,22,7,4,9,10,13,1
10,8,45,1,12,20,3,31,1
22,10,24,13,20,38,8,6,1
17,7,29,10,9,42,17,27,1
30,12,48,7,8,4,25,35,1
47,8,37,12,17,1,11,33,1
3,21,2,9,17,4,5,26,1
8,0,16,4,17,7,1,3,1
6,5,4,11,4,10,10,33,1
16,1,19,8,3,21,4,1,1
20,2,4,1,25,5,1,6,1
18,16,34,12,12,20,17,25,1
42,5,11,7,7,32,12,49,1
17,10,2,4,3,53,22,41,1
4,2,13,16,2,71,9,1,1
7,1,20,4,23,7,10,3,1
27,16,3,9,12,12,30,56,1
33,16,44,17,13,19,2,2,1
13,8,24,6,21,50,7,44,1
2,3,17,3,11,40,18,16,1
7,2,9,8,12,1,10,19,1
51,5,11,16,3,7,21,38,1
20,8,10,18,8,19,20,40,1
45,11,19,7,1,32,15,40,1
4,7,0,10,7,50,0,2,1
8,5,33,14,6,14,8,6,1
23,2,23,6,0,23,16,11,1
13,4,3,6,15,5,3,24,1
17,1,28,21,1,8,3,1,1
25,1,4,3,2,12,16,25,1
8,4,3,5,15,18,5,6,1
13,0,11,10,13,13,2,12,1
26,10,34,5,2,14,16,26,1
22,3,7,23,7,20,24,36,1
57,17,59,18,0,45,22,28,1
18,5,33,3,5,1,31,26,1
6,0,6,9,3,8,1,11,1
4,1,9,5,1,19,8,4,1
48,5,6,6,2,17,17,17,1
4,23,34,22,10,29,26,25,1
17,20,52,30,9,22,19,21,1
32,16,29,2,3,18,8,2,1
27,7,25,4,18,3,11,9,1
12,8,3,8,15,8,1,12,1
58,9,18,5,0,8,8,32,1
45,6,28,0,3,82,2,38,1
14,14,25,15,9,32,2,5,1
24,1,2,4,5,18,7,5,1
11,2,8,14,15,15,3,3,1
12,13,48,21,11,16,10,26,1
13,23,60,43,8,2,24,57,1
23,10,2,2,7,12,9,18,1
7,7,7,6,11,2,2,17,1
6,2,7,5,17,24,10,9,1
33,2,20,25,18,27,19,27,1
8,8,32,16,6,0,3,13,1
19,6,28,3,4,3,3,2,1
19,2,4,14,16,16,6,3,1
17,15,30,36,7,1,15,27,1
12,7,73,42,16,59,9,7,1
26,11,1,4,6,51,50,55,1
29,14,17,3,10,33,4,3,1
3,5,11,1,1,16,9,18,1
26,3,12,28,8,3,8,23,1
21,36,40,2,37,32,29,28,1
16,9,58,30,3,17,21,43,1
9,3,9,1,10,2,4,4,1
24,1,6,1,1,0,1,9,1
21,16,18,12,0,29,6,24,1
1,17,91,21,10,16,1,1,1
47,14,77,59,24,35,9,12,1
2,2,14,2,9,14,2,18,1
40,25,36,7,24,11,3,28,1
6,11,28,11,9,46,19,15,1
1,2,12,15,19,4,24,23,1
1,14,44,21,1,70,2,13,1
23,16,41,37,2,39,25,46,1
15,2,17,2,9,9,33,24,1
0,11,12,11,10,11,28,21,1
2,18,12,15,4,15,1,2,1
28,14,36,22,12,11,16,7,1
36,5,21,20,5,24,9,4,1
10,13,15,7,13,51,8,18,1
16,10,6,0,11,7,1,4,1
10,3,10,9,2,3,5,16,1
14,1,35,13,6,3,4,9,1
14,22,25,40,25,10,7,14,1
10,9,7,5,4,8,2,16,1
36,5,14,4,6,5,16,52,1
19,10,18,21,1,20,8,14,1
81,36,14,20,34,42,67,80,1
1,5,12,7,0,112,14,3,1
73,16,7,13,8,75,9,36,1
23,4,24,10,8,75,22,18,1
18,4,11,19,20,31,11,25,1
10,6,22,7,1,29,21,14,1
23,2,10,11,7,11,5,10,1
1,2,25,8,12,14,3,17,1
39,21,19,28,8,4,27,47,1
16,11,7,20,3,41,5,26,1
22,11,19,29,19,10,3,2,1
33,36,113,58,16,46,22,14,1
8,1,8,13,2,33,12,61,1
57,13,19,32,6,22,13,42,1
43,9,29,31,33,26,17,15,1
16,19,7,9,11,42,60,100,1
19,6,16,4,6,50,20,31,1
8,5,37,7,12,88,13,7,1
11,21,60,12,2,63,28,27,1
35,29,46,44,19,64,25,18,1
7,0,9,5,31,24,2,18,1
10,16,47,16,2,15,3,10,1
1,7,0,6,6,13,2,28,1
20,3,11,16,19,32,6,26,1
2,1,1,27,10,85,17,13,1
24,7,2,40,1,9,8,10,1
29,14,16,7,8,8,0,21,1
50,20,21,32,6,45,30,18,1
7,2,2,11,1,62,19,5,1
51,4,0,0,2,52,6,41,1
29,5,13,7,16,20,16,21,1
26,18,47,15,3,12,2,14,1
37,19,21,5,7,27,21,46,1
16,2,7,0,2,79,7,40,1
10,7,9,29,13,51,30,26,1
25,7,9,15,2,64,17,18,1
6,15,53,23,23,39,8,0,1
9,6,54,21,4,57,7,34,1
17,9,26,13,0,21,17,47,1
27,12,2,18,7,62,18,9,1
6,10,0,23,31,38,1,38,1
12,11,28,3,1,1,23,22,1
29,15,28,11,32,69,31,29,1
37,6,4,4,8,56,6,6,1
24,13,24,20,41,21,20,14,1
13,1,33,2,9,6,20,36,1
40,4,16,10,49,41,56,87,1
18,10,26,5,11,39,29,21,1
11,7,8,15,5,2,19,45,1
26,5,18,19,4,4,7,1,1
6,4,52,21,16,9,8,27,1
3,11,49,18,14,72,6,6,1
7,0,21,26,2,89,23,5,1
23,21,59,44,1,30,31,18,1
19,9,30,16,12,18,1,15,1
6,7,15,8,9,49,6,15,1
5,3,12,28,10,28,1,12,1
8,23,70,41,1,12,2,7,1
29,13,39,6,5,112,5,1,1
9,20,38,27,9,124,20,3,1
18,1,11,8,22,0,6,42,1
2,2,7,14,2,3,10,23,1
15,8,3,8,31,29,41,16,1
35,6,11,3,8,12,26,50,1
34,0,20,24,16,13,8,25,1
7,6,24,10,2,1,3,4,1
0,3,4,22,7,25,11,17,1
13,11,11,10,8,1,13,2,1
0,15,53,38,5,53,21,4,1
21,19,37,37,2,26,4,6,1
16,11,7,17,32,52,11,41,1
4,0,8,21,4,54,19,27,1
12,16,54,13,5,36,8,21,1
15,4,35,13,6,2,0,15,1
12,1,23,8,22,14,10,6,1
32,4,21,1,13,15,26,27,1
19,3,10,12,31,5,0,14,1
0,5,19,18,3,5,15,1,1
41,18,30,14,18,5,2,21,1
13,7,26,11,7,9,3,35,1
1,3,14,3,17,2,1,51,1
13,8,14,9,2,57,52,39,1
6,16,28,8,12,13,5,16,1
9,11,27,5,7,6,14,36,1
6,3,17,5,31,19,1,46,1
11,0,44,3,11,23,7,25,1
3,6,6,18,19,28,26,8,1
15,5,8,5,3,7,59,37,1
26,10,7,9,4,11,21,1,1
5,19,26,4,6,93,8,45,1
67,9,2,8,23,85,58,81,1
24,3,8,9,7,5,13,4,1
5,13,21,21,30,72,19,29,1
11,41,79,56,3,69,28,47,1
17,4,26,15,36,10,29,45,1
38,1,2,1,12,60,36,12,1
60,8,11,30,5,103,6,11,1
28,5,25,2,9,91,15,18,1
4,4,24,27,7,19,35,9,1
4,23,90,38,2,72,20,7,1
41,1,26,26,25,33,12,17,1
25,4,24,25,14,72,16,5,1
66,11,5,30,8,73,35,48,1
38,24,50,31,4,6,55,54,1
57,19,26,16,10,87,35,40,1
8,17,28,31,1,6,19,7,1
27,6,25,13,18,32,30,60,1
24,9,24,2,6,125,24,66,1
13,10,26,23,2,65,12,48,1
13,15,20,21,3,31,7,21,1
8,5,9,14,22,77,14,6,1
8,6,42,18,19,10,6,28,1
29,11,33,27,4,1,28,27,1
13,12,30,14,15,32,13,10,1
3,13,38,41,26,29,7,1,1
41,22,72,30,4,27,36,33,1
31,31,20,58,22,15,18,35,1
9,28,39,37,8,32,2,77,1
23,34,68,49,39,108,41,2,1
36,14,51,7,7,14,19,20,1
90,12,35,23,8,16,10,43,1
1,3,24,3,2,15,20,32,1
27,18,48,27,16,2,5,42,1
58,30,61,27,1,8,15,46,1
54,9,24,16,10,127,9,55,1
15,6,43,12,13,117,15,4,1
60,10,13,7,26,52,64,53,1
116,14,1,8,16,23,54,113,1
10,28,26,39,4,4,9,10,1
39,16,13,54,10,38,26,79,1
16,12,17,8,19,24,24,4,1
21,7,33,9,17,41,37,13,1
4,3,19,45,48,79,26,11,1
51,23,11,12,8,84,30,32,1
59,24,56,42,3,8,23,21,1
81,52,71,98,11,55,22,22,1
47,22,92,69,29,12,15,13,1
11,19,15,3,3,15,24,70,1
1,23,28,17,25,42,47,16,1
18,1,18,35,3,119,41,28,1
14,2,17,17,13,64,12,21,1
8,17,9,11,14,70,42,16,1
58,16,8,16,1,81,32,32,1
27,14,14,4,6,74,4,23,1
19,16,41,0,7,23,45,30,1
27,2,9,20,8,51,7,24,1
42,13,55,45,11,8,53,62,1
3,17,6,14,18,94,14,11,1
6,31,49,48,68,127,9,8,1
15,4,69,44,9,128,17,7,1
86,16,26,21,8,59,19,74,1
8,8,9,7,10,85,20,11,1
44,24,41,57,39,81,6,75,1
25,18,9,41,3,6,0,61,1
15,5,6,20,32,74,52,71,1
36,46,35,1,7,70,96,65,1
36,30,47,11,17,74,35,14,1
43,1,18,8,11,38,28,10,1
46,13,9,12,17,56,10,37,1
80,18,40,39,5,0,78,109,1
81,17,59,49,31,13,20,30,1
23,3,10,8,5,24,25,31,1
22,8,2,23,23,76,10,13,1
14,10,20,25,29,127,6,47,1
5,32,55,63,38,128,30,71,1
1,13,3,3,4,73,29,26,1
24,12,34,46,17,47,11,27,1
46,4,33,40,11,48,1,20,1
4,15,38,3,19,25,14,15,1
85,9,24,37,18,73,12,41,1
104,4,1,0,2,128,92,88,1
7,6,0,3,9,27,3,36,1
19,5,7,12,19,108,30,27,1
49,43,88,46,36,41,10,38,1
22,6,8,12,40,73,17,60,1
36,16,31,22,17,34,36,28,1
7,9,17,0,1,21,4,6,1
7,3,4,17,8,23,29,50,1
45,4,11,0,13,43,3,39,1
75,11,8,6,2,64,14,7,1
42,4,21,32,29,66,45,40,1
35,34,55,15,4,21,11,20,1
23,30,37,6,44,82,66,109,1
7,7,5,22,38,89,75,107,1
24,8,11,10,4,10,28,68,1
20,27,76,28,13,102,0,11,1
38,43,95,86,23,2,12,49,1
20,10,17,70,33,87,48,29,1
3,5,8,14,22,14,66,25,1
16,27,24,13,5,11,25,29,1
64,5,10,12,38,56,53,32,1
16,1,14,17,26,57,41,19,1
94,31,14,33,48,78,28,1,1
9,9,9,6,23,128,54,10,1
4,11,2,1,31,28,23,6,1
101,8,20,15,13,44,51,111,1
98,7,14,32,53,38,6,89,1
11,44,23,87,29,74,28,36,1
15,12,20,15,16,30,7,25,1
10,10,71,47,13,25,23,11,1
59,20,12,24,15,70,15,36,1
6,9,8,39,3,110,15,41,1
16,10,29,31,24,111,16,13,1
85,34,22,14,10,61,10,81,1
127,32,33,0,29,84,29,41,1
30,13,13,13,11,49,31,61,1
78,2,2,17,23,56,43,89,1
88,17,20,1,21,7,63,81,1
2,8,24,0,31,12,12,28,1
12,9,24,11,32,15,21,28,1
8,6,28,5,63,27,17,17,1
103,2,20,10,36,49,49,111,1
92,4,50,4,23,127,29,100,1
20,5,13,3,3,51,21,28,1
51,9,38,29,11,21,6,44,1
29,9,10,40,4,36,75,27,1
62,1,14,1,8,33,77,37,1
40,29,10,51,26,122,22,23,1
14,2,3,45,34,42,18,52,1
29,17,10,16,27,21,1,14,1
58,30,9,31,23,85,67,46,1
29,2,10,21,5,97,18,45,1
119,38,35,7,5,49,19,27,1
65,14,15,11,6,79,16,1,1
82,20,4,19,21,28,53,35,1
24,5,7,41,29,39,14,68,1
68,16,0,21,6,118,88,123,1
86,29,38,30,9,58,39,28,1
19,12,26,35,2,82,20,11,1
64,27,46,45,44,128,30,12,1
24,1,32,1,17,99,18,63,1
23,2,1,21,20,38,26,7,1
23,1,12,33,11,40,32,0,1
9,13,23,11,27,9,20,3,1
4,10,33,13,40,2,21,37,1
31,5,57,4,9,51,47,7,1
25,4,6,37,3,34,15,2,1
37,5,33,42,17,101,19,5,1
98,12,50,3,14,15,17,83,1
23,3,26,10,6,42,33,41,1
25,15,18,5,1,24,6,65,1
19,20,56,44,21,72,27,26,1
89,16,1,27,42,48,19,21,1
9,25,77,73,22,14,12,16,1
42,52,128,123,3,18,59,89,1
26,13,71,37,4,38,35,61,1
4,11,12,7,21,52,19,29,1
19,3,22,4,9,31,6,2,1
39,31,64,47,11,107,17,41,1
79,51,14,21,10,54,29,104,1
1,3,35,6,37,25,45,87,1
35,8,33,16,33,77,25,38,1
20,6,15,13,29,126,13,4,1
59,13,21,2,2,12,6,22,1
43,7,19,25,2,29,37,52,1
108,32,18,94,38,53,23,99,1
17,1,19,32,23,100,36,13,1
24,23,31,4,11,7,10,7,1
23,15,14,9,22,45,12,27,1
89,10,66,40,38,52,75,78,1
2,33,48,77,13,54,12,82,1
28,15,70,1,62,27,16,22,1
38,9,48,17,1,52,8,17,1
83,14,29,15,42,38,25,4,1
4,9,11,14,4,59,22,14,1
45,18,13,33,6,86,73,65,1
67,44,29,43,28,25,92,128,1
69,10,23,20,46,96,34,95,1
3,14,3,9,9,23,15,9,1
6,24,20,15,0,34,18,47,1
79,46,98,36,18,15,40,53,1
39,70,95,65,22,127,9,58,1
79,9,10,15,0,8,36,66,1
23,6,16,1,33,35,39,23,1
13,9,5,10,18,7,20,28,1
19,3,56,21,13,79,8,10,1
13,12,36,10,28,67,26,52,1
21,15,65,11,4,93,18,3,1
92,7,32,36,10,114,67,114,1
55,22,49,17,12,85,31,11,1
47,4,1,2,33,116,24,51,1
34,15,17,8,29,108,32,19,1
18,6,1,21,5,30,7,48,1
32,12,16,6,24,2,34,21,1
10,23,63,19,19,120,58,66,1
34,34,52,86,62,128,19,1,1
38,39,32,98,14,26,21,70,1
36,6,57,28,5,25,19,10,1
34,10,23,1,5,128,30,45,1
34,25,24,12,2,105,1,16,1
77,2,6,13,16,18,39,96,1
82,2,50,7,19,53,47,95,1
54,8,17,6,8,75,27,82,1
15,1,6,31,2,45,10,15,1
21,8,26,42,0,72,39,24,1
19,1,28,4,18,71,13,40,1
36,26,43,11,11,27,40,42,1
49,2,11,22,0,1,26,65,1
61,21,33,27,21,92,5,19,1
73,20,35,19,32,127,15,39,1
20,2,31,28,31,88,53,46,1
45,9,41,5,14,61,46,24,1
80,21,45,37,0,125,13,73,1
36,10,31,31,2,29,33,8,1
22,7,7,1,8,46,48,41,1
12,2,30,13,15,62,24,81,1
63,2,2,23,17,96,2,2,1
72,16,21,41,54,59,28,54,1
21,5,31,3,15,3,0,12,1
2,3,22,14,34,22,28,15,1
25,10,10,34,28,5,7,33,1
116,27,21,5,0,72,9,88,1
11,6,38,19,15,73,60,12,1
22,1,35,3,19,29,2,21,1
24,24,35,8,20,6,70,57,1
73,0,43,8,22,128,52,37,1
23,6,13,44,11,40,24,16,1
13,20,47,2,14,23,9,25,1
57,24,83,18,2,66,4,8,1
22,12,12,4,0,10,33,16,1
69,10,35,10,3,68,28,88,1
75,3,6,12,31,83,24,50,1
40,49,114,37,19,28,40,63,1
10,34,15,18,23,78,28,10,1
43,16,6,13,6,4,28,72,1
32,15,10,12,41,15,27,68,1
41,6,32,36,31,0,76,46,1
42,16,11,62,13,65,11,11,1
73,16,8,11,16,47,7,57,1
13,33,83,44,5,48,63,33,1
38,45,71,61,20,15,65,71,1
31,6,15,42,28,90,3,20,1
73,12,43,34,13,4,6,41,1
10,17,26,7,12,19,3,54,1
18,4,32,2,14,14,8,1,1
27,3,11,15,20,81,3,29,1
7,16,12,16,9,64,37,30,1
22,11,19,19,60,11,4,16,1
70,3,8,54,7,73,12,76,1
97,17,38,60,1,12,11,68,1
18,0,50,24,21,123,37,1,1
73,12,22,8,39,68,33,23,1
67,11,21,4,3,1,56,78,1
17,10,25,15,8,18,36,18,1
13,6,21,12,22,115,40,56,1
2,27,27,17,17,23,29,16,1
1,7,13,17,27,72,16,25,1
35,19,23,28,43,28,77,69,1
30,13,33,53,16,74,71,97,1
25,15,51,11,19,13,25,56,1
7,13,9,4,1,17,11,35,1
23,8,9,52,26,7,17,12,1
18,27,23,6,18,75,22,52,1
68,23,3,11,22,46,0,65,1
59,6,29,47,21,32,3,54,1
25,8,20,24,9,44,21,24,1
48,14,21,0,1,17,2,71,1
81,4,13,7,3,42,17,108,1
47,28,99,46,9,120,4,38,1
39,23,0,72,52,93,1,26,1
46,6,68,50,33,45,46,11,1
2,2,1,31,15,49,27,49,1
13,1,7,10,12,27,43,0,1
48,17,10,17,16,87,0,10,1
18,2,13,31,14,28,49,45,1
29,23,6,9,9,64,31,41,1
25,7,1,13,2,101,48,86,1
13,17,19,29,32,81,16,35,1
83,13,3,16,5,31,46,52,1
89,26,2,14,6,31,55,40,1
32,26,7,12,6,78,13,2,1
1,20,46,42,10,16,10,17,1
15,12,15,8,1,51,13,14,1
8,11,29,6,19,128,31,51,1
52,19,33,11,30,81,2,66,1
12,12,52,36,16,62,44,72,1
43,53,97,48,21,8,11,16,1
27,9,32,10,11,71,40,34,1
8,9,59,49,17,87,27,11,1
6,17,19,11,3,16,17,36,1
21,9,3,5,6,84,32,31,1
7,31,35,26,14,5,36,4,1
70,15,10,3,10,9,17,4,1
21,3,23,41,41,28,5,23,1
25,10,11,13,39,41,3,2,1
7,9,30,22,5,73,0,25,1
9,17,62,34,9,9,70,90,1
50,26,12,9,36,107,2,7,1
86,22,55,9,26,16,48,49,1
30,11,52,25,22,80,0,57,1
85,24,37,4,17,102,6,6,1
47,6,48,16,5,54,31,80,1
7,3,18,4,15,10,11,18,1
2,6,30,41,4,96,3,6,1
31,28,7,20,10,106,34,19,1
36,12,49,33,3,45,33,30,1
48,7,50,67,30,44,10,48,1
1,17,39,61,30,48,9,8,1
46,18,49,16,16,82,34,3,1
9,15,39,18,3,94,30,21,1
4,16,72,30,23,24,43,27,1
37,15,25,4,3,127,7,8,1
84,5,22,9,19,120,47,44,1
54,8,24,2,6,10,29,36,1
74,10,23,31,2,69,7,34,1
3,4,25,21,4,128,49,58,1
66,7,18,15,9,84,1,26,1
125,19,3,7,9,93,26,52,1
120,28,25,1,16,14,66,51,1
29,6,68,21,5,63,12,42,1
28,25,38,24,9,2,0,35,1
25,20,5,16,5,103,29,42,1
1,16,27,39,39,23,15,3,1
84,23,33,7,3,6,11,11,1
52,38,13,13,14,127,32,69,1
65,29,31,5,1,104,6,24,1
24,10,21,15,10,23,20,1,1
18,13,28,5,5,28,4,30,1
10,6,24,6,3,57,9,11,1
3,8,8,24,8,62,11,21,1
18,1,37,33,20,27,28,17,1
48,8,12,11,16,16,18,9,1
31,2,2,15,8,76,14,29,1
28,7,27,17,2,47,29,16,1
7,8,63,12,17,57,20,37,1
58,44,34,42,3,106,26,79,1
11,29,99,44,19,80,16,3,1
80,11,77,31,3,91,6,71,1
107,27,19,7,6,77,38,90,1
6,10,1,5,6,35,1,47,1
92,13,10,22,11,36,18,11,1
2,12,14,19,3,57,43,30,1
110,47,23,27,8,113,4,111,1
89,33,10,16,6,71,48,104,1
83,2,3,14,0,58,2,42,1
13,17,22,29,2,95,9,15,1
20,15,33,41,8,103,22,94,1
45,1,19,42,6,105,26,51,1
12,8,27,35,13,39,19,22,1
59,4,27,22,1,62,33,50,1
9,48,47,45,5,22,21,20,1
65,30,36,33,3,14,8,15,1
52,10,23,84,5,27,7,15,1
34,27,88,59,7,16,7,52,1
3,2,6,6,7,4,0,21,1
47,17,40,29,6,14,30,94,1
29,4,3,5,13,1,17,2,1
49,2,8,12,4,29,8,57,1
75,12,5,23,1,3,30,46,1
10,15,43,6,7,24,6,13,1
14,9,54,21,2,71,12,59,1
17,28,41,2,0,91,20,13,1
72,25,30,23,0,39,57,70,1
4,11,1,7,10,16,15,2,1
32,2,9,45,3,30,6,37,1
21,21,17,14,13,41,12,79,1
10,0,23,45,0,108,23,50,1
3,36,17,80,15,47,6,7,1
30,1,14,36,14,74,22,65,1
13,18,37,25,0,57,29,4,1
21,0,52,46,4,70,76,72,1
3,1,12,11,0,65,12,6,1
20,17,34,22,2,29,18,17,1
58,27,20,7,6,41,15,18,1
1,13,44,13,7,72,22,9,1
50,18,32,11,5,0,22,34,1
16,10,5,24,3,45,5,10,1
72,25,3,21,9,40,33,60,1
23,14,3,4,4,16,16,0,1
70,13,3,46,2,21,35,127,1
37,7,16,70,10,61,6,80,1
12,36,43,6,14,96,52,49,1
31,30,5,13,7,29,72,80,1
4,11,63,9,3,68,5,4,1
45,1,9,17,8,66,10,7,1
43,4,21,6,6,39,8,32,1
28,8,16,38,0,23,68,67,1
31,0,33,35,15,90,8,77,1
54,19,23,4,4,7,9,28,1
128,21,36,23,4,87,31,101,1
121,28,14,17,13,16,14,17,1
29,6,38,15,13,3,10,34,1
101,27,26,15,11,127,6,9,1
33,17,64,15,8,55,17,23,1
44,35,54,29,13,83,24,78,1
6,2,11,12,1,9,3,27,1
22,3,14,13,9,46,1,12,1
50,7,23,60,5,35,34,64,1
16,4,4,92,17,86,15,16,1
35,10,2,25,4,128,4,74,1
3,7,3,19,0,8,10,7,1
2,4,5,25,1,25,18,49,1
16,12,25,2,7,42,35,6,1
20,7,40,22,11,13,7,6,1
81,28,50,42,10,64,19,23,1
32,8,32,18,5,60,6,25,1
67,7,10,0,9,43,39,2,1
26,17,41,9,8,67,29,39,1
19,20,11,58,7,30,10,18,1
47,27,66,15,16,10,25,1,1
63,68,98,48,8,115,9,6,1
19,17,10,37,5,23,50,38,1
6,12,18,42,8,62,11,15,1
9,0,12,15,7,35,7,25,1
16,10,30,20,4,71,33,79,1
10,4,4,46,6,14,5,12,1
19,6,5,36,1,11,3,38,1
94,14,4,5,4,104,45,72,1
36,9,20,8,7,121,38,12,1
2,1,6,10,1,6,15,15,1
41,12,22,51,2,35,26,24,1
24,14,50,58,1,14,3,3,1
2,13,5,0,12,67,16,38,1
26,22,5,19,5,39,20,25,1
70,14,9,12,10,109,41,45,1
101,31,10,19,6,12,75,128,1
24,8,17,9,2,37,23,24,1
56,12,14,40,0,40,20,83,1
33,13,22,45,4,52,33,45,1
125,30,28,45,1,24,39,75,1
58,16,26,18,5,49,5,5,1
11,9,9,32,15,17,44,33,1
2,2,18,46,3,59,9,12,1
4,7,0,29,1,34,4,45,1
52,11,3,19,5,122,22,48,1
43,38,67,77,19,16,48,82,1
94,54,122,102,2,81,100,114,1
26,8,4,1,6,23,17,60,1
41,14,6,34,13,101,22,27,1
7,26,103,15,8,46,6,24,1
15,19,24,9,7,10,2,3,1
70,14,36,16,2,46,37,69,1
57,6,27,0,7,39,24,58,1
22,15,43,27,6,67,16,39,1
29,6,12,10,1,3,13,30,1
14,6,13,8,8,57,14,49,1
120,17,8,14,4,21,24,120,1
97,21,41,15,5,113,72,121,1
0,4,9,31,2,18,39,22,1
28,30,28,19,18,48,6,25,1
34,13,15,14,12,16,53,87,1
29,1,5,39,13,3,14,4,1
13,1,42,7,10,47,58,48,1
11,11,22,35,17,57,1,4,1
41,8,50,6,7,9,20,57,1
16,12,56,16,12,79,40,14,1
19,22,68,89,11,55,9,26,1
26,4,13,2,2,45,16,24,1
36,4,36,44,7,95,9,3,1
8,30,1,5,7,65,25,53,1
12,14,8,10,9,127,12,34,1
47,30,29,33,11,72,18,26,1
1,14,53,3,2,128,47,17,1
34,4,1,32,18,6,3,22,1
2,1,8,4,0,27,36,63,1
35,22,17,15,7,24,2,19,1
17,18,34,33,10,44,4,47,1
18,18,44,6,3,8,3,18,1
43,14,28,18,8,61,16,27,1
16,27,11,15,9,24,21,3,1
43,13,24,3,1,69,34,32,1
43,4,1,10,23,2,4,23,1
51,15,22,15,15,22,15,30,1
82,12,14,10,0,31,7,69,1
38,46,63,40,2,40,74,55,1
18,22,16,10,2,71,11,22,1
18,7,7,13,1,15,12,37,1
13,20,7,11,1,88,25,9,1
8,6,40,10,24,12,8,48,1
2,5,19,1,3,19,15,6,1
29,15,28,10,9,27,4,8,1
29,12,49,22,7,14,10,30,1
42,30,27,36,9,12,33,34,1
3,21,5,14,21,98,18,1,1
14,2,0,21,33,84,1,51,1
16,12,26,14,9,2,22,18,1
49,46,28,26,23,79,44,36,1
32,33,23,0,17,66,16,69,1
8,12,13,3,8,72,4,16,1
3,1,7,11,15,69,30,45,1
52,19,2,13,17,57,45,55,1
49,25,10,24,12,119,7,7,1
19,11,44,5,15,24,38,66,1
61,4,15,17,2,9,8,80,1
27,9,46,23,6,53,35,78,1
91,29,13,39,29,66,52,79,1
33,20,24,2,11,17,25,65,1
27,35,60,38,19,43,15,9,1
7,17,36,19,1,8,7,11,1
14,14,12,33,6,5,29,5,1
0,1,3,62,6,65,26,25,1
10,30,62,17,17,98,18,37,1
12,7,13,36,25,49,5,5,1
26,5,32,3,17,85,20,8,1
31,13,10,15,6,23,0,19,1
13,8,35,20,17,30,23,45,1
22,20,20,9,11,5,1,5,1
30,5,1,13,4,34,29,12,1
32,10,7,1,20,102,7,17,1
32,5,23,19,1,45,0,6,1
12,8,7,4,8,46,7,1,1
32,3,2,3,6,12,10,6,1
13,21,6,44,16,113,17,7,1
18,30,36,44,4,5,11,3,1
11,3,20,8,9,25,2,21,1
8,4,22,8,3,39,9,21,1
26,5,3,25,2,50,0,25,1
34,12,3,0,3,54,15,16,1
34,1,1,8,10,55,38,43,1
15,15,10,8,7,117,26,10,1
21,3,3,9,1,41,2,6,1
52,4,36,1,15,15,3,12,1
59,10,10,7,5,26,5,13,1
22,6,4,3,8,39,21,40,1
8,18,12,18,9,46,22,1,1
31,10,13,22,20,25,1,25,1
4,6,26,1,2,4,17,23,1
38,4,9,6,7,9,10,43,1
24,1,10,22,24,33,29,35,1
33,32,27,7,11,51,37,13,1
45,6,1,25,5,13,1,41,1
11,7,28,32,24,19,4,21,1
27,6,3,6,13,76,4,9,1
2,3,1,38,14,67,10,10,1
8,0,4,48,0,22,17,1,1
38,9,24,2,29,63,46,69,1
77,32,18,27,31,39,44,67,1
9,5,10,30,18,68,5,11,1
67,13,11,26,5,23,8,25,1
76,6,26,3,7,66,14,43,1
2,8,39,7,3,35,21,9,1
5,30,23,5,2,27,2,39,1
1,8,3,20,6,16,25,29,1
2,16,21,42,15,2,16,61,1
24,18,38,22,9,64,23,21,1
32,6,20,9,21,45,4,6,1
16,6,15,22,0,7,12,19,1
33,33,24,23,12,24,8,5,1
3,16,7,7,2,10,1,24,1
10,7,10,14,2,85,13,5,1
32,26,43,24,13,30,39,30,1
9,7,10,18,7,25,0,3,1
22,4,3,6,1,12,3,1,1
26,7,10,8,3,28,0,5,1
1,7,4,3,5,7,18,9,1
4,1,11,28,10,24,6,16,1
31,6,6,18,38,74,19,19,1
2,19,22,23,3,38,48,56,1
1,6,1,7,8,22,5,14,1
13,10,21,1,25,5,18,47,1
15,5,1,1,10,74,6,29,1
10,16,21,8,11,127,10,19,1
30,2,47,15,14,69,10,14,1
1,5,5,32,12,30,6,10,1
14,9,5,46,15,40,6,27,1
41,19,32,7,10,22,15,24,1
36,2,9,18,12,15,23,14,1
32,4,9,7,21,60,49,8,1
34,8,15,30,33,12,9,5,1
12,7,4,17,3,42,3,6,1
62,18,20,12,15,41,35,60,1
11,3,8,13,1,60,25,7,1
34,1,6,13,9,23,12,25,1
10,12,27,22,12,4,40,32,1
4,6,30,8,4,11,5,15,1
54,7,15,47,3,7,8,12,1
79,18,81,63,17,47,24,67,1
45,12,46,33,10,57,4,69,1
17,7,24,6,5,11,4,4,1
16,5,24,1,21,25,23,42,1
7,25,52,74,21,39,30,34,1
13,28,68,86,5,51,1,4,1
22,16,18,21,4,16,28,45,1
28,13,18,17,5,66,10,31,1
36,10,16,17,20,32,13,49,1
11,12,22,4,15,44,23,7,1
17,6,2,27,10,56,0,38,1
3,19,5,53,11,80,20,18,1
4,11,6,3,5,48,10,1,1
45,8,30,53,7,19,29,68,1
35,16,12,13,1,20,7,9,1
23,7,77,12,6,54,17,54,1
5,10,16,1,14,121,8,6,1
0,23,37,26,4,3,4,14,1
0,4,8,22,17,16,1,2,1
25,0,29,14,17,14,16,18,1
2,7,12,22,17,17,2,5,1
23,8,7,2,13,67,4,3,1
31,3,39,43,19,20,13,12,1
52,15,11,22,9,48,12,24,1
17,2,9,14,37,16,5,47,1
1,11,1,7,9,67,41,49,1
6,6,25,42,1,39,22,21,1
5,12,7,23,5,30,12,21,1
7,7,23,14,6,34,7,20,1
3,21,57,47,13,49,6,8,1
19,31,63,82,7,19,8,26,1
39,6,12,12,6,4,9,44,1
23,0,6,15,10,7,2,15,1
20,15,1,16,12,28,7,4,1
2,0,5,8,10,27,5,5,1
8,4,15,0,6,2,10,16,1
29,8,19,2,3,31,2,30,1
29,4,6,9,16,24,21,10,1
44,10,43,14,40,116,40,54,1
25,18,37,22,9,84,10,16,1
42,11,20,10,2,28,9,6,1
14,2,21,12,13,25,12,27,1
2,14,43,13,2,15,17,28,1
6,0,3,4,22,14,7,20,1
24,0,3,32,7,34,0,18,1
15,8,2,41,5,58,16,40,1
2,7,7,7,4,26,20,7,1
50,3,52,18,9,27,6,10,1
8,10,41,26,18,11,14,11,1
15,19,13,8,2,5,3,9,1
33,15,58,9,5,32,14,5,1
6,6,16,31,9,45,6,11,1
60,2,12,43,7,3,26,8,1
33,2,2,8,18,9,9,42,1
14,3,6,14,5,60,8,47,1
1,1,5,8,12,72,8,4,1
3,8,46,16,2,23,11,45,1
18,1,5,25,14,47,14,10,1
11,0,9,40,1,69,17,4,1
7,1,6,13,9,70,19,27,1
17,6,23,13,26,21,2,14,1
19,12,6,7,14,67,32,22,1
16,16,67,32,15,34,1,13,1
21,7,21,18,2,6,15,19,1
17,8,34,4,14,7,9,17,1
32,11,16,29,6,16,32,65,1
85,12,44,2,22,44,4,27,1
13,3,4,33,0,2,32,18,1
9,4,3,17,22,29,19,3,1
6,8,28,19,22,40,7,4,1
29,2,27,17,15,33,20,37,1
25,6,2,6,5,27,39,62,1
77,44,35,18,7,49,17,48,1
6,3,8,1,10,108,51,58,1
44,7,8,9,11,14,2,13,1
15,5,9,7,17,29,10,1,1
67,5,25,4,3,23,25,83,1
66,4,11,6,7,55,4,39,1
4,1,24,14,11,16,11,43,1
20,5,9,42,8,62,22,22,1
25,19,17,24,33,81,17,5,1
31,4,3,8,10,34,23,46,1
33,2,11,19,3,25,2,48,1
57,4,26,6,11,64,10,11,1
22,9,40,16,10,45,36,7,1
2,3,7,18,7,11,5,1,1
3,5,15,3,7,35,8,22,1
0,8,31,35,1,49,30,8,1
8,1,6,22,46,19,4,4,1
7,4,7,11,54,45,14,10,1
12,1,17,5,6,23,4,14,1
9,6,20,1,6,30,12,5,1
9,5,2,17,33,48,11,3,1
3,2,9,19,31,43,1,31,1
3,1,11,25,7,12,2,13,1
6,2,23,15,22,11,8,5,1
12,1,45,0,1,30,8,8,1
0,3,27,30,8,29,6,11,1
34,6,1,18,30,67,14,25,1
38,6,22,45,33,100,8,26,1
64,29,14,10,29,22,16,31,1
14,3,15,22,27,2,20,76,1
57,13,2,14,25,37,6,36,1
13,9,1,14,1,6,32,77,1
39,5,1,12,11,52,55,66,1
21,1,5,13,5,23,16,40,1
26,7,5,4,28,1,14,17,1
43,9,0,7,25,14,23,7,1
8,1,21,12,8,57,16,29,1
41,17,12,14,6,2,12,23,1
20,7,18,5,15,104,11,4,1
13,30,72,33,27,77,4,10,1
20,3,25,21,4,31,16,10,1
24,4,1,5,30,91,15,3,1
65,11,27,28,16,50,11,25,1
22,5,19,12,12,99,28,62,1
15,4,7,23,15,15,3,6,1
35,4,45,3,4,24,14,36,1
39,16,76,27,4,16,13,77,1
32,6,37,8,27,29,17,6,1
13,1,24,11,9,29,14,44,1
67,16,19,0,5,13,44,61,1
51,10,19,6,34,88,15,60,1
34,10,12,24,14,128,18,56,1
26,41,61,30,8,91,34,86,1
42,11,18,2,5,60,5,16,1
12,11,33,22,14,14,7,20,1
49,2,3,19,10,34,1,40,1
13,26,98,14,10,54,36,55,1
78,30,74,10,14,78,11,17,1
100,12,3,16,42,7,3,25,1
61,11,2,4,11,23,6,12,1
4,7,27,10,6,36,11,1,1
22,1,12,12,12,63,23,47,1
4,12,29,18,3,28,27,27,1
39,1,8,10,24,13,12,64,1
14,26,34,6,12,61,28,26,1
15,18,11,14,15,68,8,1,1
1,11,14,19,23,66,2,29,1
16,6,18,1,4,8,12,27,1
36,3,14,10,1,16,12,12,1
108,28,24,21,6,43,43,72,1
42,11,3,33,20,24,22,72,1
8,15,14,69,23,47,34,7,1
14,15,20,8,34,8,4,40,1
5,0,16,16,1,34,16,47,1
32,7,17,11,7,24,17,31,1
25,3,24,21,11,32,2,11,1
19,2,30,21,26,43,24,65,1
40,1,44,3,14,10,2,25,1
21,10,17,7,2,17,14,4,1
32,5,19,9,8,3,4,16,1
4,0,7,30,14,9,5,22,1
5,11,55,69,7,12,3,14,1
13,3,19,25,7,34,12,14,1
27,9,3,19,8,48,43,66,1
14,9,17,28,26,38,40,59,1
40,11,1,9,5,74,38,94,1
9,1,2,10,22,47,6,25,1
18,2,11,10,23,8,7,11,1
40,26,56,21,14,17,28,45,1
2,16,66,13,20,36,30,59,1
99,21,33,19,15,35,21,66,1
19,7,26,15,19,12,33,58,1
5,11,21,13,7,27,12,25,1
0,2,12,11,4,22,23,30,1
22,1,4,2,9,36,27,52,1
17,21,8,16,24,9,20,28,1
8,15,0,17,25,80,26,42,1
16,9,14,8,16,73,8,40,1
11,7,22,3,15,54,11,30,1
9,11,14,2,3,66,9,17,1
16,12,5,7,5,2,13,40,1
8,3,7,11,8,23,18,38,1
22,8,2,1,7,9,15,20,1
24,4,27,31,9,24,25,3,1
13,17,82,60,1,2,13,21,1
4,14,6,5,27,58,8,8,1
3,16,28,4,1,20,9,11,1
5,14,3,27,3,22,17,7,1
5,11,10,23,8,5,4,11,1
3,5,12,2,8,27,9,56,1
5,1,5,5,4,13,0,28,1
4,9,21,25,34,21,23,44,1
39,7,14,6,8,10,22,39,1
63,2,30,25,15,20,3,22,1
11,4,5,5,18,14,18,8,1
7,5,15,1,11,30,16,42,1
5,9,21,3,12,14,25,14,1
9,10,1,20,34,47,12,11,1
9,15,13,7,6,34,28,60,1
9,9,15,18,5,45,17,76,1
2,1,8,16,13,31,14,5,1
17,11,13,41,9,2,22,31,1
30,10,16,4,10,9,9,22,1
22,2,26,3,2,17,7,3,1
16,13,21,15,30,4,17,16,1
74,6,34,20,20,12,33,70,1
62,5,23,14,5,21,9,6,1
38,15,18,10,38,26,1,28,1
23,2,20,2,5,14,1,8,1
5,7,8,1,29,0,7,8,1
5,9,28,20,7,11,1,10,1
26,10,12,11,17,46,4,13,1
44,15,12,8,7,14,16,54,1
24,10,8,6,9,90,9,88,1
41,7,14,15,9,42,14,22,1
16,14,12,45,20,34,5,4,1
27,13,59,6,8,10,22,44,1
34,7,18,0,16,21,29,63,1
16,8,17,18,11,20,21,22,1
1,3,12,11,5,13,11,29,1
17,2,2,17,1,6,14,35,1
13,13,20,19,15,32,13,7,1
103,21,1,10,0,60,6,36,1
4,8,10,10,3,35,8,29,1
0,14,32,21,6,4,5,18,1
3,23,51,37,5,8,7,4,1
46,13,7,10,16,33,7,22,1
5,3,14,2,12,3,14,28,1
22,4,2,7,11,29,9,26,1
37,2,38,14,37,26,21,72,1
16,18,3,34,40,93,12,41,1
7,3,3,25,27,32,3,3,1
3,7,12,22,26,4,8,30,1
60,28,10,46,17,58,27,87,1
42,35,15,23,15,70,32,67,1
13,6,3,2,12,6,16,27,1
62,8,27,5,22,70,12,11,1
29,13,2,21,6,11,21,25,1
22,1,6,10,8,25,12,6,1
8,7,2,6,22,14,12,5,1
6,5,23,8,1,6,15,33,1
6,5,50,29,6,2,2,23,1
36,3,52,26,9,1,10,41,1
23,7,15,6,6,18,29,34,1
41,25,8,3,22,26,6,0,1
28,7,60,21,6,37,45,25,1
0,13,15,30,23,25,7,26,1
1,2,11,0,17,23,2,12,1
26,0,10,6,9,9,16,6,1
37,21,14,9,4,6,6,59,1
13,2,11,7,2,11,34,4,1
21,15,2,6,4,41,22,13,1
20,13,22,13,6,35,9,4,1
56,8,12,25,1,32,4,9,1
23,10,10,18,4,69,16,15,1
18,9,7,23,11,109,9,1,1
27,6,39,20,9,12,4,20,1
19,8,10,19,23,11,35,30,1
11,1,15,6,8,67,44,64,1
63,22,55,31,3,20,16,29,1
81,29,21,23,19,0,11,65,1
70,33,55,57,23,9,35,85,1
53,17,30,52,17,56,40,74,1
52,4,28,19,31,34,6,10,1
2,21,13,34,34,15,8,16,1
12,11,6,32,6,22,12,39,1
19,14,14,24,2,44,1,38,1
6,7,4,5,11,54,16,21,1
32,19,33,25,25,0,16,24,1
5,4,10,4,3,79,10,16,1
15,8,20,27,12,41,5,5,1
54,14,13,28,3,25,11,23,1
3,29,57,42,15,37,14,30,1
18,15,14,10,7,6,8,28,1
48,6,13,22,4,19,7,14,1
88,13,8,7,7,58,2,25,1
28,2,19,16,29,127,7,45,1
61,17,35,6,50,82,17,20,1
2,7,16,25,6,11,3,56,1
12,3,8,25,3,46,17,8,1
25,6,13,17,2,4,4,13,1
55,2,18,16,9,8,19,18,1
8,3,22,1,25,31,11,3,1
19,20,39,27,7,17,6,0,1
17,2,15,31,15,14,5,4,1
36,10,4,5,10,15,20,69,1
13,4,32,5,16,56,5,2,1
24,7,3,18,7,40,14,6,1
11,1,22,5,1,4,13,12,1
20,14,5,6,2,2,4,10,1
17,3,2,20,17,63,19,24,1
23,2,7,19,13,20,15,29,1
0,9,13,5,5,16,3,33,1
5,20,14,6,17,60,1,10,1
32,27,39,14,5,18,24,22,1
38,7,6,2,0,50,19,27,1
77,1,1,11,8,69,6,26,1
56,10,3,4,50,4,29,50,1
14,8,18,16,41,30,25,17,1
20,5,16,8,63,6,24,30,1
49,19,1,17,37,24,6,19,1
1,3,45,8,41,6,19,40,1
27,18,1,7,9,35,18,21,1
7,3,9,30,65,47,36,11,1
3,1,30,35,7,20,13,26,1
21,13,7,4,39,26,11,4,1
57,18,70,41,2,0,24,31,1
43,14,35,40,49,29,0,3,1
13,0,37,18,23,45,12,67,1
13,15,10,7,81,43,20,3,1
10,3,19,12,11,26,12,38,1
28,9,10,25,98,85,17,11,1
13,8,6,24,38,47,1,3,1
0,6,2,5,81,55,20,33,1
10,15,6,8,45,12,1,5,1
6,8,7,0,94,4,13,16,1
52,12,50,29,122,16,32,45,1
54,9,15,10,39,2,8,10,1
38,18,1,9,75,22,42,66,1
30,19,9,14,93,9,7,2,1
10,3,5,6,68,14,13,14,1
34,9,16,0,51,10,34,64,1
34,10,12,6,64,35,1,0,1
50,12,48,29,83,47,17,52,1
28,26,18,30,63,7,1,12,1
17,5,24,1,54,38,6,35,1
24,20,1,7,47,5,8,7,1
6,5,30,14,83,27,15,16,1
19,6,9,3,70,10,7,37,1
12,6,46,22,28,33,4,5,1
6,15,18,4,78,5,1,6,1
11,5,48,13,59,12,2,16,1
5,15,8,2,50,21,10,12,1
5,10,22,14,2,45,0,13,1
6,2,31,2,67,12,7,3,1
3,6,66,29,38,28,9,1,1
9,12,18,12,31,11,16,28,1
1,6,70,26,39,28,0,21,1
7,29,83,20,55,23,1,17,1
5,10,15,4,35,26,25,6,1
13,6,21,8,23,18,2,27,1
32,15,46,26,60,5,5,8,1
33,1,1,37,53,18,18,37,1
11,13,43,28,4,24,31,48,1
35,12,36,15,22,36,22,2,1
27,5,35,24,52,64,3,28,1
55,5,5,5,46,2,8,46,1
10,8,11,6,35,50,24,6,1
21,7,23,36,11,0,16,19,1
36,0,34,6,81,48,3,14,1
7,1,22,4,43,23,2,79,1
27,1,24,8,31,22,8,48,1
19,21,59,54,11,20,5,15,1
4,19,28,20,72,22,15,11,1
30,4,29,24,36,8,24,39,1
4,16,30,9,27,27,10,12,1
35,1,56,19,1,19,36,51,1
19,10,25,8,75,21,18,3,1
55,0,7,1,35,45,23,42,1
7,7,30,18,26,11,7,28,1
32,1,25,9,0,31,6,17,1
12,2,0,22,52,40,10,23,1
4,10,46,12,27,26,12,10,1
1,20,5,31,20,27,17,35,1
3,7,27,15,9,51,8,31,1
4,11,10,11,49,20,14,49,1
3,11,39,0,27,9,16,5,1
2,13,25,3,29,22,1,6,1
1,0,33,20,8,21,11,13,1
4,2,21,16,46,22,2,10,1
5,4,27,38,24,37,5,15,1
6,1,9,5,12,12,11,30,1
11,2,27,10,10,2,0,16,1
2,12,4,2,47,20,4,19,1
9,8,14,11,26,21,3,17,1
18,19,3,5,16,3,28,47,1
36,6,5,11,10,24,7,20,1
25,27,40,22,42,17,15,37,1
4,8,24,10,25,12,12,21,1
4,11,23,13,28,17,13,34,1
3,11,22,7,9,26,1,19,1
25,14,6,17,34,20,2,12,1
10,5,32,13,27,21,17,40,1
24,26,47,46,8,15,20,54,1
0,13,1,9,14,47,7,2,1
15,0,3,9,31,15,9,32,1
3,11,47,8,21,0,18,39,1
9,9,14,13,5,6,12,17,1
25,2,13,5,15,10,6,46,1
28,3,0,5,30,40,6,17,1
8,15,23,5,21,14,13,27,1
16,5,11,9,9,13,32,49,1
2,9,8,1,16,20,24,52,1
3,12,31,4,24,15,7,6,1
4,5,12,7,23,10,2,19,1
5,5,21,9,9,4,4,6,1
17,16,11,17,13,32,8,16,1
2,29,127,36,25,1,14,8,1
5,5,23,3,24,15,2,4,1
52,10,7,9,4,3,12,32,1
10,23,22,35,14,9,2,4,1
6,8,42,17,23,7,2,13,1
0,5,6,7,24,1,1,9,1
20,8,19,8,7,2,8,17,1
35,1,20,23,16,17,9,1,1
7,0,1,11,24,2,16,7,1
14,0,12,9,19,3,6,30,1
44,14,32,15,7,6,5,17,1
30,3,6,8,21,33,20,7,1
6,8,8,1,21,15,20,2,1
20,7,0,13,18,7,3,25,1
10,0,3,3,2,4,20,24,1
31,13,2,12,18,10,5,16,1
34,21,43,17,20,16,12,32,1
21,21,3,52,24,8,10,26,1
6,2,25,1,10,9,5,28,1
8,1,4,0,9,35,12,40,1
17,10,27,23,21,21,3,36,1
37,6,16,31,26,27,23,41,1
11,19,57,41,4,1,10,12,1
58,15,20,30,17,27,43,59,1
18,0,25,7,25,19,48,40,1
8,14,22,7,29,82,17,17,1
86,48,21,33,7,15,9,54,1
17,1,7,12,15,10,16,72,1
31,10,11,2,25,33,23,46,1
28,5,12,5,19,46,12,2,1
9,5,38,25,8,20,8,6,1
4,4,26,27,24,7,1,18,1
23,26,65,23,9,29,21,67,1
38,27,8,19,18,17,15,6,1
40,24,17,15,15,6,5,7,1
18,8,11,15,26,9,0,43,1
14,0,13,29,24,2,8,19,1
6,0,4,35,19,75,0,29,1
8,1,11,10,3,42,5,2,1
30,12,8,5,9,30,9,30,1
46,16,22,7,16,67,19,46,1
27,12,10,4,25,66,3,25,1
17,13,11,7,5,4,16,46,1
12,7,7,24,20,44,47,19,1
34,11,20,11,22,97,14,6,1
44,14,39,54,23,4,32,47,1
64,23,42,55,10,7,52,89,1
2,7,5,3,19,26,20,30,1
21,8,32,25,11,70,32,34,1
0,18,28,10,9,1,5,3,1
47,8,12,6,23,6,9,10,1
41,3,9,9,21,7,7,6,1
19,1,8,20,19,31,13,30,1
9,16,19,11,17,28,11,24,1
14,1,16,1,9,19,8,32,1
128,21,5,15,11,23,17,120,1
65,12,9,4,19,49,12,56,1
30,11,1,11,28,32,3,40,1
11,1,8,24,23,33,4,3,1
13,2,11,0,10,9,7,33,1
30,19,44,15,25,37,4,18,1
28,12,45,7,18,9,6,5,1
25,12,3,6,3,12,4,18,1
57,11,3,11,11,49,12,22,1
71,4,47,8,20,42,4,26,1
4,3,36,13,20,14,29,41,1
18,11,12,5,15,9,12,1,1
5,7,5,7,22,9,8,25,1
56,26,84,10,17,12,29,29,1
39,39,22,11,16,17,13,35,1
20,7,18,4,13,14,28,67,1
6,8,3,5,14,47,1,0,1
12,7,13,1,15,17,29,36,1
9,9,15,35,17,81,64,49,1
41,12,29,33,10,19,6,27,1
34,9,5,7,17,45,7,22,1
8,9,19,2,16,13,12,16,1
1,1,1,5,19,29,12,8,1
18,18,21,8,9,14,25,34,1
15,7,4,6,27,11,22,55,1
15,13,21,41,18,17,17,25,1
10,6,9,15,20,17,7,52,1
15,11,41,12,10,4,5,22,1
7,10,6,11,12,12,15,46,1
20,4,8,25,19,20,11,19,1
7,3,6,8,25,17,16,2,1
3,1,10,2,2,29,34,52,1
34,2,20,12,13,30,2,33,1
62,0,13,23,19,26,7,29,1
71,11,2,26,21,122,45,45,1
29,4,23,8,10,28,1,12,1
9,13,4,4,18,28,13,4,1
1,2,4,6,20,53,6,24,1
50,30,3,14,19,53,42,50,1
52,24,22,5,11,58,6,24,1
5,20,89,33,30,70,28,24,1
27,11,7,6,14,18,9,27,1
29,23,22,17,23,64,28,32,1
30,5,5,11,17,3,11,2,1
57,5,15,16,19,11,16,57,1
19,7,34,8,21,19,8,3,1
8,11,5,7,21,31,12,8,1
13,0,6,7,7,2,5,19,1
7,13,17,1,25,4,8,25,1
39,0,8,1,19,37,16,2,1
5,0,4,7,24,48,10,58,1
62,10,13,4,18,20,3,50,1
5,4,20,12,18,61,41,58,1
20,11,0,8,20,11,7,25,1
34,28,32,37,20,17,17,45,1
13,40,48,58,12,15,2,20,1
6,4,12,29,21,6,19,29,1
1,9,37,6,14,26,13,1,1
17,5,14,2,27,48,6,19,1
11,12,8,5,14,2,4,38,1
20,6,21,0,10,22,12,43,1
23,10,23,4,21,18,14,7,1
58,0,9,8,20,55,10,25,1
34,8,15,9,11,5,6,34,1
16,19,5,13,27,5,11,10,1
19,7,13,9,15,5,30,32,1
7,1,12,18,17,37,15,44,1
24,22,17,22,17,17,3,5,1
21,11,9,18,33,21,26,22,1
27,13,86,34,16,15,1,4,1
6,4,22,36,22,24,4,1,1
11,7,29,14,16,1,4,16,1
18,6,21,28,29,8,1,58,1
3,14,23,2,18,17,3,1,1
7,3,25,3,19,10,9,5,1
7,3,2,4,15,5,2,1,1
5,10,3,4,16,23,2,6,1
33,10,29,18,19,4,8,8,1
16,7,11,2,21,8,15,4,1
3,18,25,17,15,5,4,36,1
67,27,2,15,39,9,25,69,1
4,4,11,6,19,7,19,31,1
10,4,3,10,21,19,10,23,1
39,12,21,36,18,12,24,58,1
21,6,4,2,35,76,7,1,1
26,9,57,1,19,41,31,14,1
4,13,20,31,21,4,4,8,1
13,7,46,7,15,1,14,8,1
10,41,25,34,31,24,13,8,1
2,11,48,34,19,7,0,6,1
6,11,0,10,18,14,3,1,1
6,2,2,16,15,37,12,16,1
11,7,5,3,56,19,0,31,1
22,5,2,15,20,34,4,62,1
16,11,23,10,20,6,4,43,1
3,5,16,1,21,10,14,8,1
13,22,10,15,54,15,24,46,1
27,13,3,7,20,11,13,38,1
85,15,0,10,22,45,38,28,1
27,11,23,7,15,25,6,27,1
14,4,24,6,46,10,8,1,1
1,8,41,32,20,3,7,0,1
10,10,5,0,19,19,6,21,1
7,2,14,4,17,3,7,5,1
7,8,7,1,46,20,6,4,1
9,8,31,25,24,19,6,5,1
6,7,11,3,19,3,6,33,1
10,9,43,22,17,40,17,26,1
3,5,7,19,42,55,10,5,1
11,8,17,17,20,25,9,48,1
22,13,3,8,20,3,6,6,1
0,2,6,3,16,9,18,14,1
9,5,9,17,48,22,3,2,1
39,7,39,25,22,11,22,41,1
15,4,0,4,20,15,23,40,1
25,9,56,7,19,19,16,28,1
5,0,4,1,41,25,13,43,1
6,7,10,9,22,5,6,6,1
8,1,22,6,21,4,3,6,1
6,15,17,16,16,38,3,6,1
3,24,46,30,44,13,8,6,1
6,12,10,1,23,56,2,1,1
34,5,13,1,16,7,3,32,1
33,2,52,1,20,18,4,25,1
3,3,15,5,46,29,7,21,1
21,7,8,12,20,14,17,28,1
36,4,7,3,20,15,1,22,1
66,12,13,30,19,6,10,22,1
21,16,43,17,44,19,17,38,1
9,1,20,0,24,5,0,4,1
18,11,1,7,22,5,21,46,1
48,20,15,10,20,33,8,7,1
29,3,18,7,27,15,21,52,1
46,10,10,3,23,19,0,34,1
26,6,3,16,10,15,9,19,1
10,8,0,3,18,13,5,1,1
33,0,4,7,49,7,38,54,1
47,1,1,12,22,5,50,31,1
25,9,6,40,4,11,12,3,1
5,3,21,10,18,28,5,15,1
29,15,0,6,57,19,14,38,1
28,4,5,16,25,3,11,25,1
36,19,7,10,8,13,18,50,1
37,11,1,12,18,30,21,48,1
7,6,7,0,54,3,6,4,1
12,15,35,6,26,8,2,10,1
28,24,2,21,8,12,5,6,1
37,10,20,16,15,14,20,39,1
29,5,8,11,61,9,6,22,1
75,19,24,23,27,8,24,53,1
46,9,3,5,5,19,16,22,1
7,10,12,16,18,44,22,47,1
17,5,6,2,62,14,21,64,1
17,12,32,14,26,7,8,32,1
41,17,7,9,22,2,12,17,1
8,6,31,12,19,36,9,17,1
15,14,14,2,48,0,12,1,1
11,19,2,5,28,55,4,12,1
13,2,7,9,10,5,8,6,1
35,2,6,22,21,17,16,64,1
9,2,25,2,47,15,6,4,1
60,1,34,5,23,25,11,69,1
62,2,8,16,1,3,17,51,1
33,1,6,0,21,15,12,24,1
25,3,7,7,39,7,9,9,1
14,15,18,4,24,24,23,30,1
16,16,8,4,8,13,5,57,1
18,10,8,13,20,10,7,7,1
39,0,38,10,43,9,7,4,1
13,12,39,35,29,38,15,4,1
27,2,8,14,10,31,15,23,1
14,3,1,10,17,8,7,5,1
31,9,13,23,34,11,10,49,1
17,14,51,14,24,19,3,17,1
14,18,5,5,4,0,11,1,1
7,6,17,14,20,11,17,45,1
17,11,2,9,31,3,4,15,1
11,3,7,3,23,5,8,4,1
24,7,10,1,19,21,3,9,1
56,2,10,8,21,26,20,31,1
90,4,11,7,32,4,27,26,1
71,17,10,1,24,12,15,1,1
10,12,16,16,7,9,3,6,1
18,7,13,4,19,21,4,15,1
8,3,7,18,46,1,7,33,1
28,5,74,41,23,18,9,18,1
19,7,26,3,18,10,15,27,1
14,4,32,14,18,23,13,22,1
36,3,16,8,20,9,3,17,1
29,9,21,7,25,9,2,18,1
6,1,9,2,17,7,9,20,1
12,11,10,10,22,14,5,19,1
10,13,33,10,42,4,4,12,1
10,13,44,4,24,33,2,2,1
17,13,5,13,12,2,25,6,1
60,17,5,9,17,22,7,17,1
5,14,1,8,45,10,40,19,1
29,3,4,4,26,16,30,43,1
2,1,12,6,14,13,10,5,1
44,20,7,25,15,21,19,48,1
1,14,18,33,34,2,15,26,1
29,6,22,7,28,14,11,42,1
7,6,13,13,4,23,15,13,1
0,9,5,10,19,25,10,6,1
11,7,19,11,26,6,11,2,1
3,6,19,13,24,11,8,6,1
2,9,4,10,15,4,12,12,1
4,15,5,10,21,12,3,40,1
29,3,10,6,31,0,26,74,1
7,8,9,17,22,4,5,5,1
16,11,0,12,8,4,6,15,1
30,4,1,9,17,17,24,22,1
45,10,5,17,21,1,37,56,1
65,55,25,58,22,9,58,36,1
21,11,16,14,6,0,2,31,1
11,4,0,1,19,15,1,12,1
13,1,0,4,23,8,10,2,1
27,21,4,13,25,7,26,37,1
2,4,15,10,27,10,15,12,1
23,8,9,7,14,30,2,16,1
42,16,21,24,29,1,40,53,1
18,8,26,2,22,7,2,27,1
1,1,23,1,25,8,3,2,1
21,25,5,51,15,18,19,4,1
15,11,36,24,19,3,26,2,1
16,29,27,64,22,8,11,3,1
10,3,5,25,0,10,15,30,1
20,5,11,4,18,19,11,10,1
9,7,14,14,30,14,2,5,1
21,16,3,23,20,14,20,15,1
15,10,4,14,16,3,18,30,1
34,14,27,36,14,68,19,36,1
73,15,24,25,26,28,40,48,1
8,3,0,15,20,9,2,21,1
0,16,35,0,9,1,19,45,1
9,21,13,1,16,7,11,8,1
49,25,16,1,22,12,15,37,1
28,18,25,35,21,14,23,41,1
27,50,8,6,1,16,12,44,1
37,9,13,13,16,17,31,104,1
34,6,52,31,23,16,10,81,1
35,23,2,34,19,16,18,43,1
13,1,39,16,3,50,9,20,1
3,1,19,32,17,49,15,32,1
36,18,4,6,23,15,4,31,1
62,11,17,14,19,6,20,52,1
9,15,2,13,7,4,23,1,1
24,24,4,23,16,10,28,20,1
1,12,14,4,23,2,27,44,1
6,0,14,11,20,50,3,5,1
60,11,1,12,11,9,14,48,1
49,1,1,21,17,23,26,33,1
23,22,19,30,22,3,35,51,1
5,6,8,1,20,20,27,13,1
1,1,11,6,10,22,15,11,1
30,2,7,22,19,9,6,45,1
8,14,34,6,22,22,9,12,1
17,0,17,16,20,20,9,9,1
10,17,23,18,15,12,17,16,1
6,12,6,7,19,53,14,28,1
7,11,51,12,12,1,3,17,2
9,11,1,4,2,1,6,63,2
49,27,24,0,6,3,10,20,2
99,64,35,3,9,10,28,82,2
5,74,29,36,18,0,5,28,2
36,3,100,23,4,3,17,11,2
1,8,32,5,1,2,36,37,2
30,12,15,16,13,1,34,20,2
31,16,21,19,12,1,21,8,2
8,25,10,4,2,5,0,8,2
30,7,23,19,2,11,8,26,2
4,40,39,10,3,0,26,0,2
94,95,32,23,3,11,15,28,2
73,84,30,9,6,6,20,9,2
0,24,25,14,7,10,6,15,2
14,34,111,31,8,0,22,53,2
85,61,83,18,4,2,11,9,2
21,22,56,2,7,6,41,3,2
76,18,37,9,1,8,65,60,2
10,16,59,7,7,3,19,16,2
45,25,47,3,4,7,17,36,2
79,32,37,3,7,6,7,22,2
57,68,25,27,4,0,2,17,2
66,39,28,22,7,8,3,26,2
46,2,42,0,10,1,12,3,2
1,5,50,14,2,0,7,2,2
13,3,31,2,1,2,7,1,2
49,27,8,17,4,4,0,20,2
8,19,54,8,15,12,10,16,2
24,15,20,0,0,3,8,8,2
48,66,8,21,11,1,27,1,2
28,4,45,23,13,4,22,20,2
4,18,73,16,10,6,31,22,2
19,7,10,9,20,4,15,30,2
28,8,13,6,4,2,25,8,2
127,77,10,23,17,10,5,68,2
51,86,19,1,12,1,9,41,2
119,39,29,9,6,5,13,34,2
91,45,49,9,9,3,19,73,2
61,9,20,13,13,6,2,55,2
6,16,14,5,0,3,14,17,2
41,24,1,12,9,4,19,13,2
23,44,10,0,8,0,0,38,2
40,34,11,24,20,9,3,6,2
18,21,31,4,2,2,7,4,2
76,17,3,4,9,4,8,5,2
71,8,20,14,31,12,14,12,2
5,44,1,36,25,15,15,10,2
19,61,31,12,2,8,0,8,2
66,34,25,6,1,7,14,15,2
22,15,39,18,6,2,13,15,2
36,15,24,7,9,3,7,20,2
22,2,34,6,1,2,0,13,2
110,55,8,2,6,0,17,37,2
45,13,21,14,1,6,15,26,2
11,18,2,14,9,1,2,1,2
17,9,52,19,11,2,2,6,2
17,36,44,22,0,2,4,1,2
5,41,2,10,4,1,1,6,2
35,10,18,5,5,3,11,15,2
26,31,37,6,2,9,9,4,2
5,8,26,3,8,13,7,10,2
21,32,18,11,8,4,11,1,2
2,16,16,17,5,2,1,3,2
1,44,34,8,6,3,15,6,2
10,2,29,17,6,13,2,17,2
8,38,34,28,14,4,14,3,2
56,21,33,21,16,11,4,21,2
35,68,44,29,1,3,26,9,2
75,3,47,7,4,6,15,19,2
17,21,8,20,7,3,4,5,2
16,14,2,28,3,4,3,11,2
18,62,12,6,7,6,11,39,2
6,8,9,11,14,8,11,35,2
14,13,12,3,3,0,11,5,2
39,30,37,15,3,9,10,12,2
23,32,53,25,6,6,3,23,2
61,71,12,2,16,10,17,19,2
63,36,15,3,14,25,61,16,2
65,38,3,2,11,23,32,24,2
113,106,2,19,9,1,16,54,2
38,13,9,9,8,3,15,23,2
7,7,9,2,7,6,8,1,2
53,6,16,32,11,1,17,44,2
104,72,10,20,5,8,14,21,2
37,40,20,18,11,7,3,10,2
22,9,14,3,6,5,35,26,2
41,61,15,3,3,1,8,11,2
2,8,4,5,12,15,18,3,2
1,21,9,5,8,13,16,1,2
40,49,12,20,10,3,21,21,2
74,74,38,39,15,0,3,6,2
25,3,6,4,6,2,13,6,2
80,23,28,5,16,6,38,8,2
25,48,15,4,5,4,8,11,2
5,18,8,3,6,11,21,15,2
28,24,39,11,4,0,26,32,2
14,20,44,5,8,0,6,6,2
37,31,7,18,7,5,6,15,2
17,26,4,7,11,3,4,52,2
82,67,2,9,9,7,22,14,2
16,8,17,3,9,1,18,10,2
14,17,16,2,11,6,14,26,2
13,9,5,16,12,0,13,8,2
65,83,26,17,6,2,24,10,2
3,14,29,7,2,8,6,25,2
9,2,10,6,1,4,18,14,2
42,48,1,3,1,7,1,23,2
29,51,7,23,19,10,16,8,2
77,43,13,2,9,6,4,27,2
79,38,2,20,7,0,21,72,2
26,10,24,17,5,4,4,25,2
19,11,2,2,11,5,6,9,2
40,1,6,9,1,4,1,6,2
60,38,4,3,1,4,10,11,2
40,48,12,5,9,8,4,1,2
23,25,14,21,9,2,3,7,2
37,15,4,7,1,0,3,13,2
11,5,14,12,18,7,3,14,2
25,27,7,4,1,8,0,3,2
8,44,5,10,5,1,4,11,2
33,34,11,6,1,1,16,8,2
43,11,30,9,8,5,13,11,2
13,2,15,2,4,5,1,33,2
40,17,7,7,2,0,13,8,2
12,15,6,4,0,5,24,14,2
47,2,4,1,5,0,3,22,2
10,12,20,5,5,10,15,24,2
46,26,50,5,12,1,3,9,2
6,39,31,5,4,1,7,20,2
97,10,6,22,8,1,1,6,2
4,6,23,8,1,8,15,7,2
64,7,31,3,4,10,17,27,2
6,3,11,1,1,0,3,10,2
27,28,15,10,16,5,13,4,2
40,20,13,8,6,5,13,2,2
19,30,11,7,9,4,2,4,2
25,9,14,1,7,3,2,23,2
13,40,18,2,3,2,3,4,2
6,10,15,19,22,9,3,14,2
19,5,8,15,22,1,1,0,2
12,3,5,10,9,1,2,4,2
1,19,9,7,3,2,6,4,2
34,63,39,11,0,16,7,44,2
23,42,45,7,7,10,20,60,2
20,23,31,15,2,2,2,7,2
82,5,20,5,5,1,7,21,2
22,40,17,6,0,1,32,33,2
38,38,24,5,4,0,6,3,2
8,31,44,15,9,4,5,23,2
18,24,25,5,11,13,1,27,2
46,23,29,18,10,2,5,8,2
33,18,7,16,0,1,16,7,2
52,18,3,1,15,5,9,13,2
9,8,12,16,8,4,7,11,2
31,65,13,7,1,4,17,8,2
26,17,0,8,3,7,15,26,2
18,8,2,1,8,4,9,10,2
2,11,16,19,6,2,18,11,2
29,12,12,7,7,2,17,11,2
3,23,8,12,7,1,4,8,2
28,27,10,21,13,1,5,6,2
56,59,18,3,2,11,9,11,2
37,61,1,1,4,3,11,1,2
9,46,4,9,7,3,0,29,2
6,20,8,1,4,2,11,9,2
13,43,5,5,2,0,2,18,2
16,62,6,12,5,1,5,36,2
50,34,3,2,5,6,6,0,2
20,16,20,8,29,9,6,9,2
23,7,8,3,4,2,9,2,2
2,21,4,7,3,0,8,24,2
10,9,21,18,5,1,5,6,2
6,33,4,6,7,3,4,4,2
5,5,13,6,3,3,6,21,2
49,38,27,6,3,4,9,21,2
39,40,19,18,4,4,20,56,2
5,3,52,29,4,3,13,6,2
8,14,2,23,11,1,3,5,2
6,39,1,6,3,1,1,1,2
33,5,11,14,8,2,5,6,2
3,21,22,13,0,1,9,11,2
16,5,2,0,4,2,5,5,2
10,4,18,19,2,3,12,14,2
12,12,2,3,2,0,2,0,2
0,15,1,14,13,9,2,1,2
18,3,7,6,5,4,2,6,2
17,27,7,11,2,1,5,7,2
18,18,18,6,3,8,4,4,2
19,0,11,23,10,1,2,17,2
99,98,31,46,13,3,7,41,2
4,7,34,10,6,5,8,31,2
1,3,12,8,6,1,11,2,2
15,13,16,5,4,1,0,24,2
2,15,2,26,2,6,11,25,2
7,42,1,12,5,1,2,10,2
20,2,2,9,1,1,10,4,2
26,31,4,7,15,18,15,18,2
26,6,8,16,7,2,7,10,2
72,39,27,15,9,3,5,12,2
15,2,6,6,2,0,1,10,2
21,21,3,14,12,2,4,19,2
21,12,17,14,14,2,3,12,2
87,50,12,9,15,6,3,21,2
7,10,20,6,1,3,5,10,2
17,11,20,9,25,5,10,21,2
7,2,7,14,7,2,11,6,2
5,26,19,11,2,3,1,13,2
2,11,31,21,6,4,2,4,2
19,28,13,6,6,3,4,3,2
28,0,1,1,6,2,2,15,2
44,29,5,17,12,5,13,3,2
71,1,25,1,10,12,30,36,2
41,42,23,3,1,2,3,29,2
40,11,27,2,2,6,8,34,2
5,2,8,2,6,1,11,20,2
4,20,8,2,1,3,12,25,2
10,42,14,14,5,4,10,20,2
55,59,4,17,7,5,4,27,2
66,47,11,15,8,2,7,34,2
16,24,9,24,17,2,6,6,2
5,8,9,10,6,4,1,7,2
6,6,9,10,13,2,1,1,2
11,19,2,0,8,0,0,2,2
15,14,3,13,12,2,16,11,2
23,52,13,8,3,3,6,6,2
9,18,9,2,1,1,2,12,2
0,40,11,13,18,8,11,11,2
24,3,6,5,1,2,13,6,2
62,6,14,2,2,3,1,35,2
24,25,0,5,9,1,9,10,2
34,10,3,9,5,2,21,4,2
8,31,4,13,10,10,11,18,2
8,21,5,10,12,4,20,26,2
5,24,6,13,0,16,17,18,2
11,12,1,4,4,2,3,18,2
18,4,21,18,13,5,9,17,2
29,36,33,5,5,6,3,20,2
48,62,55,5,14,1,6,12,2
58,40,14,6,1,1,10,11,2
2,7,34,15,1,1,3,10,2
14,44,2,10,2,6,1,8,2
15,12,0,2,11,4,0,0,2
16,16,12,9,1,5,1,5,2
16,6,1,6,1,3,3,9,2
6,31,25,4,13,2,6,9,2
2,34,1,19,14,5,4,19,2
5,4,13,15,12,1,5,2,2
36,62,33,15,11,1,25,19,2
25,34,5,10,12,1,9,3,2
23,3,40,5,4,3,2,4,2
21,12,11,1,11,5,9,1,2
67,1,6,20,1,4,15,21,2
84,0,3,15,9,0,11,18,2
19,34,2,3,0,2,6,6,2
12,60,9,10,5,0,3,12,2
4,23,2,13,0,2,3,4,2
28,37,1,3,9,4,5,2,2
64,38,10,7,1,4,10,6,2
37,33,14,17,8,10,7,23,2
2,25,3,18,4,10,2,8,2
22,1,14,4,8,0,0,5,2
22,15,5,3,2,7,9,9,2
4,46,20,12,9,6,12,14,2
17,3,2,9,4,3,10,6,2
46,21,12,13,11,5,14,32,2
18,7,8,16,13,5,2,21,2
11,38,7,4,7,3,5,17,2
6,16,12,9,7,5,7,8,2
10,9,40,5,0,1,5,14,2
84,50,10,12,1,5,1,15,2
42,48,1,2,4,5,0,18,2
94,32,12,20,2,3,12,41,2
29,45,18,26,5,2,4,7,2
1,32,2,1,1,2,1,1,2
19,52,10,2,9,4,9,25,2
37,40,11,10,18,2,16,4,2
1,15,12,7,6,1,8,1,2
10,2,10,13,6,1,3,13,2
41,8,2,8,1,1,17,9,2
17,26,3,19,16,11,3,0,2
11,21,10,5,1,9,6,27,2
30,15,1,4,6,3,10,17,2
51,3,11,20,12,1,13,20,2
79,13,9,7,12,1,16,38,2
34,29,13,10,0,1,3,14,2
16,21,2,1,5,0,3,4,2
22,29,7,2,0,4,4,1,2
34,20,24,7,2,5,10,7,2
36,21,13,22,10,8,9,23,2
10,33,3,7,0,0,10,5,2
47,4,12,3,2,3,4,21,2
37,19,16,18,7,7,6,23,2
36,12,0,19,0,1,2,17,2
1,14,11,1,9,7,6,14,2
1,35,12,10,2,3,5,1,2
34,26,20,7,5,7,20,13,2
23,6,5,3,2,4,11,21,2
5,27,36,1,8,5,4,6,2
44,35,46,3,0,3,8,17,2
57,22,22,6,5,5,5,15,2
32,33,11,2,4,4,6,2,2
13,14,8,10,3,1,10,7,2
22,20,3,2,4,6,3,20,2
16,10,13,6,6,5,14,42,2
8,5,14,2,3,1,8,28,2
22,55,16,21,19,10,0,19,2
48,11,1,0,3,2,5,2,2
56,20,8,3,0,5,10,6,2
54,7,14,14,8,3,4,13,2
4,25,1,7,5,1,6,12,2
4,0,7,12,8,5,7,11,2
5,22,5,12,7,1,13,12,2
29,25,5,14,10,7,14,22,2
2,38,15,3,3,5,9,10,2
42,6,16,16,12,8,20,24,2
14,36,9,7,7,4,1,8,2
3,3,19,11,1,1,4,5,2
4,4,1,9,5,4,12,2,2
2,18,15,18,16,4,4,0,2
8,25,26,10,1,6,1,7,2
32,31,40,20,6,2,9,6,2
3,20,2,2,1,3,3,31,2
23,16,12,9,11,3,6,2,2
18,49,11,6,7,7,11,4,2
19,4,13,11,6,1,7,9,2
15,24,6,11,9,10,5,2,2
16,15,12,29,15,3,8,6,2
5,15,20,31,15,3,14,0,2
24,28,7,5,2,3,1,15,2
6,32,26,21,8,1,6,9,2
32,9,9,14,4,0,9,13,2
60,62,12,15,0,3,17,12,2
20,7,10,5,1,1,8,15,2
16,22,1,7,14,2,10,12,2
22,6,7,2,5,1,7,17,2
27,35,20,15,16,2,13,28,2
24,34,16,22,23,17,12,5,2
22,5,24,14,8,5,9,1,2
0,3,4,11,6,2,4,2,2
21,46,30,26,11,5,4,5,2
16,20,7,11,3,4,7,6,2
17,20,7,21,7,4,0,3,2
3,5,8,1,3,4,14,3,2
69,72,7,6,4,1,15,21,2
23,65,19,6,5,1,3,4,2
4,29,8,8,6,3,9,15,2
54,0,5,4,5,5,5,12,2
10,6,1,2,3,5,12,12,2
46,57,13,26,20,5,5,14,2
4,10,3,1,3,0,8,5,2
44,31,1,7,3,13,5,1,2
44,17,9,7,9,1,5,40,2
6,23,11,10,7,3,0,3,2
35,11,12,0,6,1,20,9,2
43,42,20,6,4,5,7,20,2
38,15,4,8,8,7,1,3,2
5,13,5,9,4,0,10,6,2
48,34,17,3,11,9,9,17,2
3,5,25,17,1,1,1,2,2
3,13,28,11,0,7,6,14,2
36,32,2,5,3,3,0,10,2
26,4,11,8,4,0,2,15,2
5,12,14,15,18,3,6,25,2
1,24,9,7,5,5,9,19,2
8,29,14,8,13,8,4,10,2
6,11,3,9,4,0,5,0,2
86,74,7,1,10,4,11,14,2
11,9,8,6,0,3,5,1,2
17,15,10,1,3,4,8,9,2
6,27,4,9,12,3,7,2,2
34,11,10,3,1,4,18,24,2
19,31,10,2,5,6,14,3,2
86,18,8,22,23,9,1,21,2
11,29,5,6,14,3,1,12,2
2,22,1,3,3,1,8,18,2
30,24,0,1,4,2,7,7,2
28,20,30,2,4,3,19,8,2
11,2,5,22,12,10,4,1,2
46,36,30,22,12,1,0,5,2
11,31,7,1,9,2,0,5,2
13,12,4,16,9,6,5,21,2
13,1,0,14,9,1,1,3,2
0,19,5,1,1,2,7,1,2
18,13,6,10,4,4,9,2,2
72,10,8,16,5,6,6,6,2
30,45,11,11,1,0,9,7,2
37,20,19,14,4,1,8,5,2
19,0,22,10,1,1,6,5,2
13,3,9,18,16,7,10,16,2
2,5,11,14,15,1,6,10,2
13,0,18,21,19,9,1,10,2
1,7,25,18,23,7,7,7,2
5,4,16,15,15,6,2,6,2
12,21,2,18,11,14,6,27,2
7,3,12,26,8,7,2,17,2
33,76,20,13,0,2,4,15,2
14,20,10,7,4,0,1,4,2
6,29,11,12,10,9,4,10,2
92,57,3,2,2,8,9,18,2
99,44,5,10,7,5,7,30,2
29,20,0,1,3,1,6,13,2
1,1,4,12,0,2,13,7,2
7,20,1,5,2,9,10,15,2
18,4,10,11,4,3,5,7,2
9,19,17,12,4,1,10,7,2
11,9,8,8,0,3,8,2,2
27,20,16,0,4,4,10,2,2
6,1,9,4,5,7,14,9,2
17,40,13,7,3,3,8,9,2
49,38,9,2,1,1,10,31,2
65,9,1,12,12,1,1,11,2
34,19,11,5,4,10,24,11,2
20,9,18,11,11,6,20,11,2
9,15,2,8,7,0,2,23,2
10,6,3,6,1,0,8,1,2
17,39,4,3,2,2,2,20,2
12,21,8,3,5,5,7,13,2
15,28,1,9,9,2,2,15,2
83,63,1,8,6,4,5,22,2
20,27,2,6,6,4,13,11,2
20,33,12,33,21,7,13,2,2
57,1,11,13,15,11,9,18,2
103,49,13,6,12,4,17,1,2
2,24,3,2,1,4,3,11,2
14,14,5,8,8,17,12,5,2
5,18,4,3,6,1,2,12,2
54,30,12,14,14,0,14,7,2
26,5,10,14,8,5,5,12,2
13,16,3,1,4,2,12,1,2
43,21,2,4,2,5,17,8,2
40,39,5,5,5,2,16,12,2
8,0,6,2,2,1,4,14,2
31,37,7,5,4,2,3,5,2
5,20,6,4,9,1,2,16,2
49,21,8,1,6,0,18,17,2
18,8,2,8,5,1,16,14,2
1,15,2,6,9,4,8,6,2
20,17,11,24,14,6,3,1,2
11,9,13,18,11,0,6,11,2
5,1,8,2,3,4,0,5,2
36,24,3,1,1,1,6,8,2
11,19,14,8,9,3,11,5,2
3,31,11,22,16,5,3,9,2
5,3,8,16,15,20,19,6,2
59,55,18,3,3,5,20,8,2
33,28,8,1,8,3,3,10,2
2,7,11,2,15,1,2,16,2
4,18,0,1,6,1,12,10,2
26,40,3,6,6,5,14,12,2
54,48,6,1,1,2,0,13,2
15,6,8,8,10,4,13,10,2
39,35,6,8,1,6,8,37,2
43,45,18,32,24,4,2,20,2
7,15,1,6,8,5,5,31,2
8,8,6,1,6,1,17,5,2
14,19,1,4,4,1,11,13,2
30,15,6,1,5,3,9,25,2
53,18,14,10,9,2,7,5,2
25,40,7,9,1,5,0,5,2
29,36,11,3,1,3,9,3,2
18,3,4,2,2,1,1,0,2
25,58,10,19,16,3,0,6,2
38,44,21,19,15,10,6,1,2
21,35,0,9,2,3,0,18,2
42,16,3,12,10,3,4,2,2
7,0,9,12,2,7,12,15,2
29,37,7,9,3,3,6,3,2
28,8,17,20,10,2,5,17,2
30,20,1,1,2,3,18,23,2
62,15,11,1,9,12,3,2,2
33,63,3,5,2,4,2,4,2
8,32,7,5,1,0,6,31,2
35,22,0,14,14,3,3,15,2
19,14,18,7,9,0,3,14,2
51,34,14,1,6,5,12,15,2
23,23,5,6,0,3,6,8,2
61,49,12,1,2,8,5,11,2
30,32,7,4,0,5,3,2,2
2,12,2,4,7,0,4,6,2
16,0,3,10,9,3,1,12,2
3,16,4,7,3,5,20,14,2
19,54,6,17,7,2,1,14,2
38,31,6,8,7,0,5,1,2
28,3,7,9,2,3,0,12,2
6,11,16,18,8,3,6,0,2
7,7,17,21,6,5,4,1,2
4,13,0,2,4,3,3,9,2
18,60,17,11,6,3,1,8,2
2,17,3,21,14,1,1,5,2
33,17,5,8,5,3,4,6,2
31,38,3,2,2,0,4,3,2
74,12,0,15,5,6,20,23,2
11,14,7,23,15,1,24,16,2
5,16,28,8,2,2,6,12,2
3,18,7,7,3,2,2,1,2
7,33,0,0,3,2,0,2,2
23,5,33,30,12,6,13,18,2
29,29,9,15,7,3,1,18,2
33,35,16,28,16,0,2,5,2
20,33,0,11,4,6,1,10,2
28,26,13,7,0,5,12,7,2
75,91,6,4,7,0,6,21,2
5,32,3,5,4,5,10,1,2
18,7,4,2,5,1,8,3,2
6,18,6,10,7,3,2,4,2
8,25,8,9,8,1,5,1,2
3,11,23,16,2,7,7,8,2
32,11,1,8,7,1,7,4,2
16,7,5,1,6,3,11,7,2
1,15,4,7,1,1,11,18,2
78,19,3,5,7,10,6,2,2
52,54,24,22,21,8,2,1,2
11,4,8,0,4,2,8,7,2
9,7,2,7,2,1,4,2,2
15,2,5,7,2,2,12,8,2
59,48,8,9,10,3,11,21,2
75,63,6,4,2,7,8,0,2
8,16,10,1,8,5,1,1,2
31,8,3,10,3,1,7,10,2
60,35,1,2,4,3,9,37,2
4,5,1,6,7,1,8,9,2
7,14,9,10,10,9,0,3,2
1,0,1,8,4,6,11,1,2
96,11,14,1,3,4,0,38,2
12,21,17,13,8,5,2,21,2
5,11,10,3,1,7,6,4,2
28,49,8,5,5,3,1,4,2
23,35,15,9,1,4,4,24,2
1,13,2,4,3,6,9,11,2
17,3,4,7,5,7,2,5,2
54,21,0,6,7,0,4,0,2
20,29,24,5,6,7,5,13,2
23,6,3,7,10,2,4,17,2
24,2,1,4,6,11,4,0,2
19,1,6,9,7,3,0,18,2
5,6,6,12,7,4,4,3,2
8,43,25,3,0,5,4,13,2
9,3,5,5,1,1,0,5,2
27,5,5,13,9,2,7,5,2
53,43,13,12,6,0,11,3,2
15,4,2,3,4,2,12,7,2
3,6,14,5,9,2,3,9,2
14,61,13,17,15,3,16,23,2
19,1,13,6,10,1,2,4,2
58,2,8,5,7,6,4,9,2
35,40,9,1,6,4,10,17,2
11,7,14,13,3,3,2,31,2
16,40,7,13,2,5,4,14,2
14,38,9,4,4,0,3,2,2
1,15,20,19,7,7,11,26,2
16,7,8,16,11,8,3,7,2
65,42,2,0,2,1,13,8,2
0,37,9,2,1,0,6,6,2
21,35,10,5,4,1,4,1,2
45,19,8,29,29,10,12,19,2
68,10,1,4,7,2,13,26,2
6,0,0,3,0,1,6,2,2
13,19,15,13,8,1,9,13,2
18,16,12,13,12,4,7,15,2
61,14,13,2,0,4,10,11,2
39,51,19,11,5,0,8,12,2
3,6,22,6,2,0,6,5,2
80,39,0,4,7,1,10,30,2
60,34,24,13,2,1,9,25,2
20,7,6,1,9,2,4,4,2
29,17,6,3,4,2,12,11,2
25,12,11,7,0,6,21,13,2
17,5,9,5,4,3,9,1,2
36,15,16,22,16,4,1,11,2
16,14,1,3,0,1,15,23,2
5,10,2,1,1,2,0,13,2
29,16,12,16,4,6,4,10,2
59,51,10,1,4,6,3,7,2
13,6,1,6,2,8,9,13,2
15,20,18,13,3,6,7,3,2
31,68,2,9,2,5,8,3,2
9,16,11,1,1,4,2,5,2
65,29,6,7,3,0,7,37,2
51,50,16,1,0,3,2,8,2
37,18,6,3,2,6,3,11,2
6,21,23,8,1,0,4,14,2
3,3,10,7,2,0,0,11,2
14,24,16,2,0,2,2,9,2
15,8,8,8,2,3,7,9,2
32,20,6,13,12,2,8,18,2
28,27,7,3,2,2,10,4,2
13,5,6,2,7,5,1,9,2
22,19,5,3,2,3,3,2,2
1,7,2,5,4,5,9,5,2
36,41,12,15,9,1,2,2,2
2,26,9,1,2,3,9,8,2
35,17,0,5,1,4,2,2,2
33,11,9,1,6,2,0,9,2
52,37,8,14,4,7,7,20,2
21,20,18,1,2,0,3,5,2
2,25,2,6,8,1,1,11,2
4,8,2,1,4,3,5,9,2
3,2,15,3,0,1,22,8,2
26,20,2,5,5,4,3,7,2
63,49,15,4,3,4,10,8,2
1,8,1,15,9,1,6,4,2
1,13,1,5,2,2,19,10,2
4,23,5,7,3,3,1,4,2
7,32,5,2,0,7,12,5,2
17,25,6,11,12,3,13,8,2
31,8,10,15,12,4,4,11,2
1,18,0,0,3,5,5,5,2
8,32,5,5,7,1,1,3,2
0,13,18,7,5,0,9,4,2
7,2,7,7,6,2,2,9,2
49,4,3,0,3,1,4,7,2
10,16,14,3,2,4,7,11,2
54,12,6,3,1,3,12,24,2
25,16,5,3,2,3,0,7,2
3,18,19,8,1,2,2,5,2
13,8,5,2,2,0,10,11,2
10,8,6,1,2,4,1,8,2
0,3,4,0,4,3,4,4,2
86,36,13,2,3,2,7,30,2
12,12,21,18,14,4,10,24,2
5,29,20,20,16,3,7,7,2
68,21,7,13,12,0,6,19,2
34,23,6,9,5,1,3,9,2
45,17,17,4,5,2,13,15,2
45,78,6,5,0,4,13,10,2
15,16,3,1,6,4,6,6,2
12,20,3,8,3,0,1,17,2
44,46,0,3,4,0,1,20,2
88,23,11,27,15,11,10,25,2
16,52,24,10,3,4,6,1,2
38,59,18,3,5,3,6,10,2
58,28,3,0,4,1,1,8,2
11,26,4,3,0,2,0,5,2
4,15,13,9,9,5,5,11,2
11,15,2,4,8,5,4,2,2
11,12,7,16,10,5,2,7,2
10,29,9,10,7,2,3,12,2
6,32,11,7,8,7,6,1,2
14,15,1,8,8,14,17,9,2
10,26,11,4,9,1,11,3,2
14,1,1,11,3,3,11,1,2
13,12,3,2,4,3,17,18,2
35,10,21,16,11,9,5,7,2
15,6,11,1,5,0,0,2,2
10,7,5,7,6,1,3,4,2
19,9,9,19,12,2,1,3,2
5,7,9,11,4,1,4,2,2
13,13,7,5,2,2,1,34,2
13,49,23,3,3,3,7,28,2
18,19,11,11,8,2,0,16,2
14,8,15,10,9,0,3,12,2
8,3,5,2,9,3,7,2,2
21,6,4,4,0,1,1,2,2
20,26,8,2,0,4,4,2,2
29,15,8,9,6,1,1,8,2
9,88,3,9,5,0,19,8,2
53,37,2,3,3,3,15,12,2
11,3,28,2,4,3,2,34,2
0,15,1,0,1,0,2,17,2
20,9,8,1,8,7,14,7,2
1,6,18,22,16,8,19,5,2
24,36,5,10,8,4,28,22,2
83,19,4,0,2,3,1,72,2
53,26,17,5,0,4,2,14,2
5,24,47,8,2,1,2,1,2
41,31,6,4,4,4,1,8,2
52,11,0,5,1,7,17,46,2
25,18,18,11,1,2,11,0,2
6,21,9,17,5,2,1,10,2
43,53,5,6,2,2,9,26,2
50,97,21,7,16,2,19,6,2
39,48,4,9,4,3,11,16,2
27,34,30,10,4,2,1,20,2
36,5,23,1,4,2,2,2,2
15,6,10,1,4,3,9,2,2
55,20,7,8,4,1,5,14,2
62,15,4,21,7,4,3,27,2
1,17,11,2,3,2,1,1,2
19,18,5,2,2,2,5,3,2
32,10,6,14,6,4,8,10,2
19,19,8,10,12,2,1,2,2
58,42,1,26,13,4,2,18,2
12,63,28,12,16,12,10,31,2
12,23,14,4,1,3,3,11,2
13,3,17,4,2,0,5,8,2
29,27,1,3,1,1,4,10,2
2,21,16,5,0,4,0,22,2
36,11,7,6,5,2,4,9,2
21,53,18,3,1,6,3,5,2
32,51,21,24,18,2,6,5,2
9,0,20,32,30,1,4,14,2
2,15,4,2,7,3,8,5,2
3,13,2,0,3,5,2,0,2
57,3,9,7,3,5,3,10,2
5,11,2,16,9,1,15,2,2
57,48,26,4,5,4,7,17,2
105,16,3,21,8,5,14,32,2
24,27,16,3,1,4,14,9,2
36,0,3,8,2,4,21,3,2
37,6,14,11,7,1,7,3,2
36,43,13,5,1,4,0,0,2
58,8,29,22,15,4,14,2,2
17,21,5,4,7,6,5,11,2
19,17,1,2,1,4,12,9,2
48,12,11,2,1,1,3,1,2
5,4,14,3,3,3,15,31,2
21,7,4,11,10,3,4,15,2
80,1,10,7,12,1,1,43,2
39,40,14,3,5,7,1,6,2
32,56,6,4,0,9,15,6,2
14,8,8,5,4,12,10,4,2
17,15,4,10,9,7,5,3,2
30,27,4,2,5,2,2,10,2
46,38,4,15,10,3,1,1,2
36,31,13,20,21,5,2,6,2
9,5,11,1,2,8,7,18,2
15,11,7,1,1,1,5,13,2
103,83,18,4,1,4,8,32,2
27,67,0,4,1,2,3,23,2
3,8,5,0,1,0,5,30,2
0,1,16,12,7,4,5,25,2
19,33,22,15,1,3,5,6,2
3,3,9,2,3,6,1,7,2
35,51,19,3,9,3,4,5,2
8,36,13,5,0,1,15,22,2
52,49,25,19,1,1,2,12,2
70,29,16,23,9,8,15,10,2
9,4,22,14,4,4,17,12,2
51,65,19,5,7,0,8,17,2
17,19,15,2,1,4,5,13,2
35,26,18,13,1,2,1,12,2
17,11,4,6,1,3,9,3,2
4,8,4,6,4,2,3,12,2
11,31,11,3,7,2,1,8,2
1,11,10,9,11,3,2,2,2
19,2,5,8,8,2,3,13,2
5,6,3,5,2,0,3,10,2
36,6,1,9,3,2,13,7,2
4,6,12,12,7,5,11,3,2
4,14,7,6,1,4,7,4,2
8,2,20,4,2,5,10,2,2
8,3,3,13,6,4,6,3,2
43,33,5,7,4,3,5,3,2
22,17,10,4,6,8,2,4,2
8,6,5,3,1,3,1,3,2
10,7,1,12,12,6,6,5,2
23,40,4,3,3,0,7,7,2
35,20,9,5,5,3,3,2,2
26,3,3,12,10,7,1,31,2
8,3,7,13,11,1,7,5,2
9,57,1,9,2,2,16,7,2
22,9,5,10,9,2,4,13,2
45,4,13,21,10,2,1,13,2
10,5,0,13,4,5,4,14,2
16,0,18,23,11,4,4,4,2
51,61,24,24,9,0,1,7,2
25,34,6,11,14,1,7,2,2
35,12,28,2,7,1,3,6,2
83,18,10,3,1,6,8,13,2
1,9,2,6,4,8,16,15,2
18,36,5,20,15,1,17,20,2
10,3,1,15,8,4,1,21,2
8,4,0,0,2,4,2,4,2
21,15,0,4,9,0,16,16,2
8,15,1,14,13,5,9,7,2
101,29,4,10,8,5,10,15,2
29,15,3,5,8,2,1,3,2
57,5,8,0,4,3,4,5,2
37,19,1,4,4,5,1,15,2
11,41,16,15,7,2,3,10,2
16,20,9,19,8,1,2,8,2
98,54,41,11,7,7,6,23,2
9,17,26,26,11,8,7,5,2
18,14,18,10,5,1,8,10,2
13,37,14,2,1,1,6,5,2
69,17,1,1,4,7,1,11,2
88,36,6,10,3,3,8,27,2
34,33,4,12,12,1,0,16,2
10,1,10,11,5,6,2,13,2
68,83,6,1,3,2,3,17,2
21,14,2,9,5,3,6,12,2
8,14,8,10,5,6,9,18,2
8,9,4,6,3,0,9,16,2
4,8,12,8,10,6,5,9,2
13,6,5,1,4,2,6,0,2
68,42,12,7,3,0,15,42,2
4,12,11,8,15,0,5,8,2
12,3,34,31,5,1,5,2,2
13,10,8,2,0,6,6,10,2
24,4,9,10,9,0,8,8,2
21,40,4,3,6,1,8,8,2
1,10,4,11,5,1,8,17,2
56,53,11,4,1,2,6,17,2
1,60,1,6,4,3,8,2,2
4,3,9,9,0,1,3,2,2
29,19,4,11,4,1,1,20,2
11,6,9,0,0,3,4,14,2
47,27,5,7,5,2,0,8,2
4,3,5,16,6,4,0,5,2
90,9,15,14,8,6,7,13,2
7,4,3,0,9,0,1,6,2
76,51,8,9,0,4,6,23,2
18,11,6,0,1,5,10,9,2
3,16,7,11,10,0,2,1,2
36,62,11,22,17,4,8,26,2
9,7,1,9,12,3,0,13,2
31,15,3,0,3,2,3,2,2
43,9,1,4,4,4,4,5,2
6,1,7,0,2,6,9,8,2
34,37,2,1,3,4,3,3,2
25,31,6,5,3,2,9,33,2
22,4,8,4,3,2,12,7,2
24,13,6,0,1,1,3,13,2
96,64,22,12,1,0,3,26,2
6,2,3,10,0,2,9,6,2
14,8,1,2,4,4,2,8,2
22,15,6,9,4,4,2,1,2
18,8,3,11,4,8,6,6,2
20,22,33,48,28,4,3,1,2
22,18,7,2,1,4,4,1,2
22,31,5,2,5,7,3,17,2
6,18,7,14,10,1,11,18,2
37,18,2,11,5,1,1,23,2
33,21,25,12,7,7,2,8,2
21,0,7,7,3,1,9,11,2
89,71,10,3,6,5,1,7,2
91,2,11,2,4,0,3,23,2
12,15,2,3,4,9,5,10,2
4,5,2,6,3,1,2,4,2
22,2,8,5,4,1,7,14,2
16,4,14,8,5,0,0,3,2
14,35,5,12,6,1,5,7,2
5,37,4,6,3,1,4,21,2
2,71,15,10,8,1,5,3,2
11,2,20,12,5,6,1,18,2
8,7,15,7,0,2,0,4,2
8,4,8,7,9,4,7,12,2
8,1,2,3,1,2,0,1,2
96,108,11,10,8,4,1,16,2
13,26,14,14,11,2,3,4,2
3,12,6,3,5,5,8,12,2
5,19,0,0,2,1,6,5,2
16,44,12,23,23,6,4,0,2
3,1,4,7,9,4,4,5,2
47,24,9,9,8,5,28,41,2
97,17,3,6,4,6,17,21,2
51,78,3,14,15,3,8,7,2
2,1,15,8,10,1,1,8,2
7,2,3,4,6,3,5,2,2
8,6,11,6,4,8,29,9,2
37,38,17,10,8,4,1,4,2
23,27,1,2,4,1,4,3,2
7,8,3,1,6,1,5,1,2
21,18,6,6,3,1,10,6,2
10,8,3,0,9,4,1,1,2
45,16,1,1,4,3,4,14,2
2,0,0,2,5,2,4,0,2
49,67,13,11,14,3,0,12,2
11,10,9,1,4,1,0,15,2
30,28,8,8,6,3,5,25,2
10,3,7,8,15,2,11,19,2
7,23,16,6,0,3,5,8,2
17,16,1,1,2,2,1,6,2
95,109,26,11,5,1,6,9,2
64,22,11,2,2,5,3,8,2
2,8,5,3,1,2,6,20,2
19,14,1,5,0,1,5,11,2
43,14,4,0,0,1,4,16,2
3,5,6,12,10,2,4,5,2
11,2,1,14,11,7,9,2,2
26,57,22,5,2,1,6,32,2
10,18,4,21,4,6,4,1,2
8,10,8,8,7,6,2,2,2
21,16,7,0,5,2,1,6,2
1,52,0,21,7,1,1,12,2
13,40,5,2,3,0,0,27,2
78,0,9,15,12,7,8,19,2
22,10,2,1,2,3,8,1,2
6,10,6,7,4,3,6,9,2
14,10,2,5,5,3,4,16,2
13,3,2,3,5,2,2,6,2
19,5,2,17,18,5,12,5,2
33,10,12,2,4,4,2,20,2
3,24,10,12,8,1,16,7,2
27,6,11,8,2,3,1,22,2
16,0,12,0,2,3,8,0,2
2,43,1,0,4,10,13,10,2
18,35,8,7,3,4,2,2,2
39,74,22,10,1,7,14,9,2
5,9,11,7,7,3,1,17,2
67,45,7,11,5,0,3,46,2
5,3,3,5,3,0,0,8,2
7,27,11,15,9,6,1,8,2
5,1,6,5,2,7,6,22,2
12,3,9,2,4,4,9,8,2
4,11,34,22,5,5,3,10,2
27,16,9,0,12,3,27,26,2
12,7,6,2,3,2,5,6,2
42,65,15,0,0,2,7,24,2
0,13,13,17,19,1,9,10,2
19,32,6,17,3,3,0,4,2
16,26,7,8,0,0,5,19,2
18,19,2,6,2,4,8,18,2
9,24,4,6,7,12,23,5,2
59,51,19,14,10,7,2,25,2
13,29,2,3,3,1,1,32,2
6,2,7,1,1,3,14,16,2
15,12,8,5,7,2,1,2,2
23,5,13,2,5,2,3,9,2
16,20,20,3,4,2,0,14,2
28,15,10,3,5,1,10,10,2
47,59,8,4,4,3,4,4,2
35,41,4,7,6,2,2,4,2
11,4,1,0,0,0,2,5,2
0,8,10,4,5,1,4,9,2
15,9,4,3,9,3,16,24,2
98,42,18,1,7,2,7,26,2
37,44,7,3,5,6,8,24,2
32,17,9,13,11,0,6,29,2
13,32,2,5,4,1,12,5,2
26,13,8,5,2,1,4,1,2
34,5,2,0,4,0,5,1,2
28,31,8,3,2,10,7,8,2
13,35,5,2,3,4,3,0,2
17,17,10,5,3,0,5,3,2
81,18,3,4,0,0,1,11,2
48,2,9,1,4,1,1,15,2
2,5,5,7,6,2,3,6,2
26,7,2,0,6,6,12,16,2
17,2,2,1,2,3,7,10,2
31,33,1,6,4,1,2,33,2
25,10,12,2,6,6,29,46,2
8,19,10,13,8,6,11,19,2
8,0,1,4,1,3,9,4,2
14,26,6,4,6,2,13,9,2
18,1,4,14,11,5,6,4,2
34,15,13,1,4,3,15,9,2
76,62,3,2,3,1,17,19,2
37,20,7,1,2,2,8,24,2
6,21,5,1,1,5,3,8,2
55,10,8,5,4,2,1,12,2
7,10,19,12,12,4,7,9,2
4,5,3,5,6,4,0,0,2
2,2,5,8,4,0,11,0,2
13,8,12,18,4,1,9,12,2
56,16,7,17,7,1,13,15,2
12,5,29,9,3,5,9,15,2
38,16,9,11,1,3,5,22,2
25,63,5,1,6,7,20,3,2
14,23,20,9,4,2,6,6,2
49,49,4,1,1,3,3,13,2
10,0,20,11,11,7,6,16,2
62,10,14,11,1,3,1,11,2
20,17,3,1,6,1,10,24,2
1,17,2,6,2,4,10,15,2
6,10,8,2,4,2,2,14,2
93,92,12,3,0,0,5,28,2
69,27,7,9,5,8,2,45,2
27,42,28,14,19,1,5,23,2
24,29,11,1,5,1,2,15,2
23,10,1,4,2,3,3,4,2
30,31,6,6,5,1,24,30,2
58,67,24,20,16,1,3,17,2
15,2,7,11,10,0,7,13,2
15,1,5,1,5,1,8,9,2
53,23,1,8,9,1,7,5,2
39,33,9,15,13,1,1,4,2
15,11,18,8,8,1,4,5,2
2,20,12,4,2,8,2,8,2
12,29,10,16,18,2,4,0,2
8,10,7,6,3,1,2,10,2
1,26,6,14,10,2,2,15,2
34,64,15,4,6,8,18,28,2
66,16,5,9,6,2,25,24,2
17,7,7,2,0,3,1,4,2
5,37,8,3,9,0,7,2,2
23,7,6,3,3,7,4,5,2
17,13,6,6,6,2,4,6,2
15,15,4,0,1,2,7,7,2
3,3,1,8,2,2,9,7,2
30,21,12,8,1,1,5,1,2
63,19,0,6,7,4,3,16,2
19,14,25,2,8,3,0,17,2
5,10,0,19,15,6,3,7,2
23,25,4,16,8,8,8,2,2
53,14,7,1,3,0,9,9,2
87,22,0,6,9,1,5,23,2
54,28,13,0,3,3,2,8,2
6,10,9,4,2,5,6,23,2
35,18,3,3,3,1,7,4,2
10,41,17,4,3,6,8,13,2
48,75,28,12,7,2,6,1,2
10,14,9,4,5,6,10,20,2
4,22,10,5,0,1,6,13,2
4,39,2,5,0,1,3,9,2
11,20,6,7,1,2,2,4,2
15,3,5,0,1,1,2,3,2
13,28,11,3,4,1,1,1,2
15,34,3,6,2,3,10,8,2
17,3,5,9,6,7,2,1,2
17,19,7,3,3,4,4,2,2
62,64,18,4,2,7,7,2,2
28,40,16,16,7,2,1,5,2
71,14,24,14,1,5,4,10,2
94,32,7,5,7,6,3,12,2
15,8,7,1,7,5,7,1,2
41,9,5,9,11,0,9,11,2
33,19,4,2,0,4,18,2,2
15,9,5,1,2,5,4,16,2
33,3,16,12,6,0,14,6,2
10,4,1,0,3,7,1,1,2
52,25,5,10,14,2,4,10,2
73,29,6,6,3,4,1,43,2
10,4,8,6,1,2,1,1,2
9,22,4,8,6,1,1,3,2
10,2,4,2,2,3,6,2,2
12,8,5,16,14,1,8,10,2
31,6,2,5,2,2,2,11,2
62,37,4,2,2,5,1,13,2
6,21,1,4,3,1,1,0,2
11,15,12,15,13,7,8,4,2
24,14,5,1,0,0,3,10,2
2,7,3,4,0,1,1,9,2
20,4,9,5,2,4,11,17,2
84,15,6,7,8,7,33,41,2
78,60,28,6,1,2,20,66,2
55,22,5,1,4,0,6,42,2
9,8,1,3,6,1,4,3,2
15,13,3,9,8,2,3,4,2
15,4,3,5,2,1,10,9,2
23,22,12,8,7,1,9,4,2
12,15,9,6,5,3,5,3,2
23,24,15,2,2,1,6,9,2
17,5,7,10,17,10,17,15,2
20,26,13,0,0,2,5,9,2
24,21,2,8,6,5,3,14,2
31,0,4,3,3,4,12,18,2
20,11,5,2,3,7,6,20,2
42,67,9,15,9,4,1,4,2
7,10,5,10,7,5,5,23,2
64,60,11,1,6,6,4,38,2
30,51,4,6,4,8,19,14,2
24,1,4,5,3,1,5,6,2
72,1,5,2,5,0,8,5,2
8,2,2,1,6,3,3,16,2
12,1,2,5,2,1,2,19,2
0,6,5,1,4,3,17,3,2
40,26,8,11,2,9,5,13,2
4,16,4,13,5,1,3,7,2
35,4,7,3,1,2,5,3,2
27,53,14,9,6,4,1,10,2
8,10,4,1,2,2,5,0,2
8,3,10,7,5,1,1,5,2
34,31,3,6,3,1,5,0,2
14,23,4,3,4,1,2,6,2
4,1,6,1,1,5,5,2,2
33,0,18,3,3,0,7,10,2
36,30,3,17,14,3,13,13,2
3,10,8,15,6,2,4,22,2
0,7,10,21,2,3,1,7,2
16,9,5,2,1,4,4,7,2
29,22,21,2,2,1,18,18,2
44,36,9,0,4,4,10,11,2
11,3,0,7,6,1,5,7,2
43,27,1,0,5,6,7,24,2
22,8,9,7,4,1,3,27,2
11,0,3,9,2,2,1,1,2
74,16,1,2,1,2,6,25,2
48,36,12,10,2,2,3,17,2
47,73,8,2,4,1,3,18,2
6,22,10,12,7,5,4,3,2
33,19,34,29,14,5,2,13,2
4,3,15,10,1,3,17,4,2
0,13,8,1,1,3,18,18,2
2,14,3,6,6,4,1,13,2
11,8,4,8,13,1,10,5,2
27,12,6,6,1,0,8,4,2
32,14,13,2,1,0,1,17,2
13,7,8,3,6,2,10,23,2
55,1,4,14,4,3,12,19,2
13,12,0,6,6,4,13,6,2
9,29,2,1,2,2,6,5,2
20,11,9,7,4,8,3,5,2
72,7,9,7,6,1,16,24,2
27,9,10,2,7,4,2,10,2
12,14,9,5,1,1,1,16,2
5,7,5,5,2,1,5,5,2
8,15,3,2,2,4,10,4,2
15,4,3,15,3,4,3,14,2
8,1,4,6,4,4,10,7,2
16,3,12,3,0,4,12,1,2
16,0,10,5,1,6,2,7,2
5,29,15,1,11,1,4,11,2
75,31,19,3,8,4,8,17,2
24,8,7,10,1,5,13,8,2
9,61,1,7,9,2,6,3,2
12,4,1,0,6,3,8,19,2
4,8,10,7,4,1,8,8,2
15,7,12,2,8,0,4,0,2
8,10,9,27,13,7,8,3,2
31,71,1,12,8,1,7,4,2
19,50,7,1,2,2,2,3,2
3,16,8,1,7,2,9,17,2
24,4,5,9,2,0,1,4,2
1,6,10,15,2,3,14,17,2
20,9,1,7,5,2,13,0,2
8,6,6,18,16,2,3,1,2
20,26,11,0,4,1,0,11,2
79,41,10,5,1,1,3,14,2
16,8,4,8,10,0,2,10,2
3,8,6,5,1,1,0,1,2
14,3,4,2,5,2,7,21,2
17,31,1,0,6,1,3,7,2
0,8,11,9,7,10,9,8,2
44,2,4,15,14,5,5,12,2
21,35,13,9,4,6,11,16,2
9,31,14,7,7,2,10,14,2
15,25,10,12,10,4,7,12,2
73,9,3,3,2,6,13,52,2
47,41,4,2,1,3,2,18,2
0,50,7,2,2,5,9,13,2
4,24,10,13,5,1,3,6,2
30,12,1,19,9,2,8,20,2
11,11,5,27,14,1,5,1,2
10,19,11,9,9,6,9,2,2
13,23,6,8,2,0,9,7,2
16,0,4,1,3,2,5,4,2
2,22,1,2,2,1,3,3,2
37,5,0,6,2,2,3,2,2
10,11,19,12,1,0,7,0,2
6,27,6,19,7,1,1,29,2
14,1,10,9,8,2,5,22,2
26,44,17,15,10,0,1,11,2
96,70,17,9,6,3,1,19,2
5,2,4,14,8,3,0,8,2
37,4,12,9,6,0,1,9,2
55,6,3,3,4,0,4,20,2
11,5,5,18,14,1,1,3,2
3,43,1,9,4,2,9,9,2
16,15,11,3,5,2,4,2,2
23,3,7,14,1,4,7,17,2
41,24,17,30,13,7,2,13,2
3,14,15,8,1,2,8,3,2
3,10,37,41,8,9,9,5,2
0,17,6,1,5,4,11,39,2
13,14,17,11,5,2,18,49,2
15,24,21,37,2,3,15,1,2
14,27,4,25,6,5,2,12,2
13,21,2,7,8,4,8,12,2
16,6,0,7,6,2,9,23,2
10,0,2,1,4,3,7,4,2
1,2,6,14,4,1,10,15,2
13,4,4,7,3,0,11,39,2
24,13,10,40,30,11,11,1,2
11,1,26,24,7,2,7,1,2
21,11,1,4,0,2,3,10,2
5,36,22,32,6,3,3,4,2
15,12,0,17,3,1,0,2,2
21,37,1,10,4,3,1,9,2
26,60,7,2,11,2,0,10,2
3,2,10,17,5,1,4,1,2
1,21,12,14,3,0,6,13,2
4,9,7,6,5,3,2,12,2
10,5,24,18,6,4,1,9,2
2,10,19,17,2,2,8,20,2
8,10,8,5,1,3,6,18,2
16,18,15,28,11,4,11,18,2
16,10,4,20,4,4,12,12,2
36,19,20,13,0,5,15,11,2
34,91,47,43,31,7,4,6,2
5,22,6,15,7,1,4,25,2
76,39,7,0,4,1,1,1,2
55,64,24,3,10,0,3,13,2
10,13,11,9,14,3,3,19,2
2,8,2,3,8,4,4,16,2
5,1,3,3,0,4,10,1,2
50,39,4,23,20,8,2,14,2
11,17,9,22,20,5,2,1,2
9,20,3,1,6,1,3,8,2
11,38,3,2,2,6,4,10,2
15,9,9,11,4,1,15,3,2
11,23,8,3,5,2,13,6,2
3,13,5,21,14,7,2,4,2
19,8,15,25,10,4,1,2,2
103,57,19,17,8,4,6,24,2
16,11,3,4,9,3,4,10,2
30,38,17,9,6,6,10,7,2
3,19,4,2,1,1,2,8,2
19,14,12,11,2,0,3,32,2
1,26,0,3,7,2,1,0,2
18,7,1,0,1,2,4,2,2
17,32,14,8,3,5,10,5,2
23,15,14,5,3,2,0,0,2
12,9,3,14,13,2,0,10,2
11,9,1,11,6,3,5,16,2
27,28,10,4,1,3,5,10,2
21,9,11,5,5,1,3,23,2
8,22,7,12,2,4,5,2,2
46,28,20,13,1,2,12,7,2
69,27,17,29,9,8,6,5,2
12,3,19,0,1,1,8,1,2
8,13,12,9,2,1,7,7,2
28,7,6,7,6,3,6,20,2
36,11,9,20,14,3,12,11,2
30,23,3,8,9,3,8,3,2
3,8,1,3,4,3,6,4,2
17,33,11,7,4,6,2,8,2
27,21,4,11,10,6,13,17,2
2,5,3,10,7,1,3,10,2
33,28,3,18,12,2,8,17,2
22,24,12,15,5,7,8,22,2
46,52,9,17,6,1,1,2,2
18,16,7,3,1,2,1,8,2
9,14,13,7,2,1,4,14,2
19,28,10,9,0,1,1,23,2
25,5,16,4,5,2,1,7,2
24,13,2,1,4,2,4,3,2
25,6,10,23,17,5,10,3,2
20,21,9,9,7,4,4,24,2
7,1,2,6,2,1,1,10,2
15,7,12,5,2,3,5,6,2
1,5,9,5,3,0,2,2,2
29,7,15,20,1,1,3,2,2
3,13,8,19,2,4,5,5,2
17,25,3,11,0,10,6,9,2
26,4,6,18,15,4,10,8,2
51,36,9,1,5,1,1,17,2
26,52,9,14,20,11,17,25,2
13,19,8,0,4,2,14,35,2
25,15,10,3,5,0,2,6,2
19,4,3,6,2,4,11,19,2
4,3,14,9,3,3,13,1,2
18,6,19,11,1,7,14,3,2
1,6,18,14,6,3,25,0,2
31,32,2,5,4,0,3,32,2
5,24,3,0,0,4,0,13,2
2,3,2,2,0,2,12,12,2
10,12,19,20,4,4,4,3,2
65,51,16,16,0,2,1,6,2
10,22,8,0,7,0,13,2,2
0,5,13,15,18,1,23,14,2
36,8,1,5,13,7,17,60,2
2,9,3,9,4,4,6,15,2
13,21,11,2,2,0,2,11,2
18,5,16,2,4,3,11,10,2
21,3,12,13,7,3,7,28,2
18,2,4,19,13,3,13,6,2
14,17,1,23,13,3,1,12,2
36,29,1,4,2,0,2,8,2
14,21,12,5,8,2,0,0,2
8,17,9,5,1,0,5,10,2
20,2,2,5,5,0,0,15,2
16,14,5,20,9,6,9,12,2
9,9,15,5,6,7,26,13,2
1,5,13,22,5,2,21,0,2
0,2,7,8,7,1,2,1,2
2,17,6,9,16,1,2,10,2
5,17,4,6,2,1,6,14,2
3,20,8,5,4,0,1,13,2
2,16,21,17,14,3,4,3,2
20,3,0,5,1,0,9,13,2
4,11,2,1,4,8,19,36,2
1,8,6,4,1,2,9,28,2
0,10,12,11,11,4,10,2,2
12,3,3,4,0,2,4,4,2
14,11,1,19,15,1,2,7,2
11,12,6,0,4,1,14,0,2
58,30,7,3,0,6,8,7,2
22,12,2,1,5,1,11,24,2
9,4,12,18,8,2,3,10,2
4,28,7,4,12,2,4,9,2
13,8,8,14,2,5,2,12,2
8,7,6,8,7,1,7,6,2
15,14,8,8,8,1,3,2,2
54,3,2,6,2,2,4,27,2
27,11,4,4,0,5,5,5,2
15,4,11,9,4,7,5,13,2
81,4,11,11,6,1,14,25,2
40,9,13,8,5,5,8,27,2
21,22,1,6,0,4,1,6,2
19,22,4,4,6,6,13,5,2
71,28,8,4,8,4,12,4,2
7,10,1,12,5,5,7,33,2
12,12,1,20,12,4,11,14,2
24,19,4,5,3,3,10,16,2
4,24,5,3,1,1,5,11,2
15,6,10,2,1,3,1,7,2
2,21,6,7,3,0,1,7,2
12,14,14,1,1,4,3,0,2
12,7,7,5,4,4,3,5,2
4,20,2,4,2,1,2,13,2
40,5,15,11,0,2,6,13,2
19,12,18,2,6,3,4,2,2
4,7,4,2,3,1,2,15,2
5,2,10,10,4,4,3,8,2
10,22,1,1,5,8,1,10,2
1,4,11,9,4,9,27,6,2
2,25,4,4,0,7,23,6,2
53,24,18,10,8,4,7,22,2
33,22,7,10,21,4,2,1,2
80,11,12,12,8,3,5,34,2
26,10,8,9,15,0,0,7,2
5,11,6,10,2,3,1,10,2
7,8,4,12,1,8,2,2,2
37,2,1,9,3,6,1,15,2
23,1,2,1,8,2,2,12,2
45,1,8,15,0,3,9,22,2
26,45,2,6,4,5,5,2,2
64,32,1,8,4,1,17,12,2
1,8,2,15,4,6,3,9,2
28,14,13,6,4,1,9,16,2
8,30,3,8,8,6,4,10,2
23,11,2,10,18,4,3,3,2
15,56,4,6,6,3,6,9,2
0,20,15,5,0,1,5,6,2
10,7,5,2,1,0,5,10,2
23,14,13,15,13,3,7,4,2
2,1,14,6,6,0,5,0,2
8,58,9,8,6,1,0,5,2
11,14,9,17,2,4,1,3,2
30,23,26,26,1,1,1,18,2
32,13,4,4,2,5,7,10,2
41,8,3,4,2,3,20,4,2
62,16,7,13,4,5,0,19,2
10,1,6,4,5,7,1,2,2
16,28,2,4,6,4,1,10,2
2,10,18,4,2,1,2,23,2
1,32,11,15,16,2,3,9,2
1,22,1,1,1,5,8,16,2
29,5,15,15,7,0,1,4,2
25,34,5,1,2,1,1,1,2
21,16,9,12,6,2,6,9,2
7,23,7,11,0,3,5,5,2
33,21,5,3,7,0,4,3,2
3,4,10,14,13,3,3,6,2
21,9,12,1,2,3,10,14,2
19,4,11,5,4,5,10,0,2
1,3,1,2,5,5,4,3,2
9,22,6,1,4,2,2,5,2
19,5,3,0,3,0,0,2,2
1,2,1,0,2,2,6,3,2
56,11,1,4,1,3,14,40,2
27,40,7,10,5,1,4,23,2
5,43,1,11,7,5,4,2,2
5,24,6,0,6,0,14,18,2
7,12,0,15,9,2,6,3,2
8,19,7,2,1,4,7,28,2
15,23,3,9,9,2,3,1,2
10,9,7,8,7,3,4,11,2
51,40,12,7,11,7,11,9,2
14,6,2,16,6,6,3,8,2
7,8,0,9,4,2,2,2,2
3,12,1,4,1,0,2,10,2
23,42,36,15,4,1,3,6,2
7,12,14,14,6,5,8,5,2
10,4,20,10,0,2,9,6,2
20,9,1,19,6,5,12,19,2
9,18,8,19,14,11,3,27,2
6,50,11,9,11,3,6,8,2
71,28,23,20,8,4,6,18,2
45,45,13,2,11,4,7,2,2
19,50,3,2,1,5,6,7,2
20,22,10,10,8,6,14,20,2
17,25,1,3,6,3,4,9,2
14,4,21,9,7,1,1,2,2
23,12,8,12,3,2,3,7,2
5,6,0,2,5,0,6,4,2
17,17,4,0,5,3,0,7,2
20,20,25,5,3,1,4,2,2
13,5,1,17,4,2,8,3,2
1,5,3,0,8,3,10,4,2
2,29,13,14,7,4,10,8,2
9,20,8,3,2,5,4,7,2
10,6,2,10,5,0,1,8,2
5,3,7,2,8,1,13,20,2
11,1,7,1,0,2,7,12,2
63,28,25,0,5,4,4,5,2
4,9,0,5,5,5,1,8,2
38,3,13,3,2,1,9,18,2
100,87,2,5,4,3,8,19,2
1,49,4,6,4,3,1,0,2
3,1,19,12,0,6,1,11,2
8,19,4,5,3,1,2,7,2
16,19,4,3,1,1,6,23,2
22,35,13,6,2,2,3,6,2
14,1,2,0,3,3,5,15,2
11,6,0,5,9,1,10,18,2
29,5,2,12,6,3,3,1,2
13,10,10,16,3,1,7,3,2
1,1,11,8,2,1,4,7,2
33,50,17,4,7,5,2,23,2
2,9,4,9,3,2,2,5,2
9,5,7,1,1,2,8,2,2
13,3,4,8,4,3,4,11,2
31,37,17,1,4,2,13,10,2
62,18,11,6,0,3,0,33,2
50,52,11,13,8,1,8,17,2
23,58,1,3,2,5,5,22,2
8,18,2,3,5,1,3,10,2
2,11,14,7,0,1,2,9,2
20,16,4,8,6,1,2,4,2
0,39,8,2,4,0,2,1,2
19,6,1,4,1,2,18,14,2
5,22,0,6,3,2,2,11,2
16,29,13,9,6,2,3,2,2
1,48,8,4,7,5,4,0,2
7,2,9,8,15,2,3,1,2
13,2,7,6,3,2,7,10,2
4,1,5,6,3,1,1,1,2
7,0,4,8,7,6,16,11,2
12,4,4,0,2,3,19,27,2
21,27,4,1,0,5,14,17,2
3,22,10,1,5,3,2,19,2
5,5,7,3,7,1,2,36,2
8,8,6,13,17,4,3,0,2
61,7,9,10,14,8,9,8,2
47,7,5,5,6,2,3,4,2
9,4,4,1,0,6,7,6,2
7,4,8,8,2,5,3,6,2
7,10,4,12,20,8,9,2,2
41,32,2,6,5,1,12,5,2
20,8,2,2,1,4,9,7,2
2,12,2,11,7,5,4,1,2
2,22,6,5,3,0,3,3,2
8,23,6,8,1,1,2,6,2
1,12,1,2,3,5,3,12,2
4,4,11,12,7,1,5,4,2
9,8,7,10,1,0,3,18,2
57,5,12,7,9,3,6,25,2
32,52,12,1,1,2,4,33,2
4,28,7,6,1,1,6,7,2
12,22,6,4,1,1,4,13,2
21,5,4,2,0,5,4,7,2
36,24,4,7,1,3,9,23,2
4,13,8,8,3,3,3,12,2
17,6,5,9,3,2,5,14,2
40,14,1,8,6,6,6,9,2
4,8,12,5,3,0,4,14,2
2,41,7,2,2,2,4,10,2
23,28,16,9,8,2,15,3,2
34,10,13,6,13,4,18,23,2
7,11,2,7,3,1,13,22,2
23,1,12,13,7,0,3,13,2
4,4,2,4,5,5,0,2,2
23,10,11,0,6,4,7,2,2
56,27,4,2,2,5,17,5,2
19,3,14,8,2,1,6,14,2
12,1,2,5,5,1,12,15,2
24,10,9,4,2,5,16,26,2
8,7,7,2,2,1,1,8,2
1,45,7,3,3,2,1,3,2
15,18,4,11,6,2,0,25,2
74,22,1,13,9,0,8,33,2
12,7,8,7,8,6,9,4,2
3,10,14,16,0,0,0,0,2
13,20,5,1,2,5,3,0,2
31,10,8,3,1,0,4,0,2
15,13,7,9,5,1,5,9,2
1,40,8,5,1,2,2,8,2
9,16,1,10,7,6,1,10,2
64,9,34,19,7,9,14,30,2
11,9,7,16,4,4,2,18,2
15,15,7,14,8,4,4,12,2
4,21,6,0,1,5,5,0,2
2,21,4,5,2,6,0,16,2
22,12,4,4,4,4,1,33,2
9,14,3,3,5,1,1,29,2
22,12,3,2,2,6,4,25,2
3,4,5,0,5,2,3,15,2
17,6,2,7,1,2,9,12,2
17,9,11,9,3,4,3,12,2
19,4,6,5,1,3,1,4,2
1,17,11,9,2,3,4,1,2
30,52,17,3,2,2,5,9,2
64,41,7,4,1,1,7,14,2
40,14,8,0,5,2,10,10,2
23,4,9,3,9,4,11,8,2
15,7,3,1,0,4,3,13,2
32,78,8,10,7,2,4,15,2
16,8,9,4,1,0,2,26,2
2,15,1,5,8,6,4,19,2
29,2,14,1,3,2,5,18,2
34,26,1,4,4,7,14,4,2
13,20,13,18,6,3,14,12,2
4,17,8,5,9,4,2,8,2
0,24,3,12,13,6,3,1,2
18,37,9,6,2,0,1,0,2
7,17,11,7,3,0,7,0,2
20,13,25,16,2,2,0,9,2
84,69,12,16,6,3,9,12,2
6,22,6,6,6,4,3,18,2
7,1,5,4,1,1,1,7,2
13,1,19,7,3,3,6,2,2
35,38,7,7,2,9,10,14,2
9,3,12,1,2,3,11,9,2
2,4,5,7,5,7,8,2,2
2,3,5,10,10,3,2,9,2
10,1,8,15,12,3,1,14,2
8,16,1,2,8,4,2,10,2
19,5,9,15,1,5,5,1,2
49,30,7,4,1,0,9,2,2
47,8,6,2,2,4,2,2,2
7,10,2,6,6,2,3,7,2
2,12,6,8,4,1,1,7,2
4,26,9,13,8,0,14,6,2
43,27,11,5,0,2,2,3,2
19,36,3,6,1,1,6,4,2
23,25,10,7,6,3,5,19,2
6,8,5,8,0,3,14,3,2
15,9,11,11,3,6,1,17,2
4,17,6,28,13,5,4,9,2
1,12,7,16,12,1,3,2,2
0,8,5,1,1,3,6,33,2
18,14,8,1,4,0,4,1,2
12,83,14,7,2,1,2,27,2
6,36,5,7,11,2,12,15,2
16,4,8,11,2,1,7,15,2
39,11,2,19,9,2,1,15,2
21,33,10,0,3,4,4,6,2
5,7,8,6,9,3,5,6,2
2,11,2,0,5,2,5,1,2
1,12,5,4,5,1,5,5,2
87,78,1,10,2,0,3,5,2
13,7,9,5,1,3,13,4,2
14,22,21,11,7,6,20,0,2
1,8,2,11,1,3,5,4,2
8,0,6,18,6,1,0,8,2
1,34,3,9,1,1,0,5,2
10,17,14,14,4,0,4,1,2
2,2,2,3,1,3,1,5,2
13,4,3,10,7,1,7,1,2
15,11,16,31,26,11,9,12,2
28,14,4,1,2,1,20,12,2
6,6,7,8,4,0,5,14,2
5,6,5,7,1,6,1,3,2
13,11,28,17,11,3,28,11,2
30,4,14,8,8,2,1,27,2
9,36,18,10,0,3,3,4,2
49,111,10,10,1,5,4,1,2
42,38,3,3,3,5,14,11,2
9,55,15,6,3,4,5,6,2
1,6,4,18,10,4,3,9,2
6,17,13,14,3,2,7,8,2
16,27,17,20,11,4,1,0,2
5,12,1,15,13,4,2,10,2
13,7,5,10,7,4,5,5,2
1,23,3,9,7,4,0,1,2
8,9,7,11,1,6,1,19,2
4,3,9,21,5,2,6,2,2
6,28,13,12,13,4,13,4,2
17,10,16,12,9,2,4,36,2
2,25,1,6,0,0,5,6,2
22,1,14,7,8,6,4,0,2
22,18,3,1,2,3,9,6,2
31,6,1,1,3,2,4,6,2
28,11,3,11,14,1,2,10,2
21,20,1,7,5,5,4,18,2
10,7,13,9,4,2,2,7,2
1,20,2,5,2,1,0,1,2
17,10,1,3,4,1,4,5,2
28,10,6,6,3,2,10,6,2
25,17,5,2,2,4,8,3,2
7,1,3,4,4,4,8,12,2
1,13,9,17,10,1,12,6,2
26,37,3,4,2,1,0,1,2
15,6,2,6,4,2,6,3,2
10,0,3,3,0,1,1,7,2
19,22,11,9,10,2,10,6,2
9,25,28,26,6,6,0,1,2
29,70,3,6,7,5,2,20,2
72,14,4,8,6,4,5,13,2
44,24,7,9,3,0,7,8,2
7,14,14,3,2,1,7,21,2
2,13,18,5,1,5,10,2,2
31,22,11,7,9,5,13,9,2
28,15,8,20,9,5,10,10,2
3,12,10,19,0,1,2,5,2
8,18,14,14,1,2,10,1,2
8,17,10,7,3,0,1,2,2
9,6,6,1,2,3,7,4,2
42,30,8,5,2,3,3,12,2
1,14,0,8,3,3,0,0,2
4,14,2,18,12,6,0,2,2
14,1,1,17,10,3,5,3,2
10,42,15,21,11,5,6,1,2
7,12,0,2,1,2,4,4,2
9,25,3,8,11,2,4,7,2
14,10,0,2,2,1,6,4,2
5,8,5,9,0,2,5,19,2
25,15,9,12,7,5,15,18,2
105,58,6,3,4,2,3,20,2
65,9,4,7,3,3,2,20,2
18,5,4,1,1,5,1,3,2
7,6,2,12,6,0,9,1,2
9,9,3,6,5,1,5,3,2
38,6,4,13,3,3,3,17,2
26,31,5,1,5,0,0,6,2
15,2,5,9,6,0,1,1,2
17,5,4,5,4,3,1,13,2
25,26,6,10,6,10,11,8,2
21,18,5,4,7,1,6,8,2
19,24,14,4,1,4,11,15,2
4,1,11,16,11,5,4,18,2
8,10,0,8,3,1,11,23,2
1,5,0,12,4,2,6,5,2
9,11,9,7,1,1,1,1,2
30,26,1,8,1,0,15,5,2
33,31,8,10,4,1,2,6,2
49,59,9,8,12,0,4,26,2
59,66,15,4,6,1,7,9,2
48,20,4,10,11,3,9,15,2
23,4,2,3,2,0,9,0,2
3,2,4,1,6,6,8,1,2
16,6,2,1,2,0,3,4,2
12,10,5,4,4,2,5,2,2
21,10,4,7,1,2,8,6,2
11,11,15,8,3,3,2,5,2
0,2,2,5,8,4,4,6,2
4,22,9,7,8,2,5,1,2
19,12,8,1,6,1,1,2,2
5,34,4,2,2,1,3,2,2
6,4,6,4,5,0,5,17,2
16,0,0,4,2,5,0,6,2
13,20,7,5,4,2,8,11,2
29,1,3,1,0,2,1,2,2
22,18,10,7,3,1,4,9,2
11,20,6,5,0,1,1,4,2
5,26,6,14,2,0,6,9,2
74,71,3,13,5,1,4,8,2
4,23,24,18,2,3,6,6,2
26,4,11,2,5,4,1,6,2
11,18,3,8,3,5,2,2,2
5,4,9,16,6,3,4,6,2
20,5,2,9,10,2,12,12,2
5,21,6,3,2,7,8,14,2
2,3,10,4,5,4,1,8,2
11,24,2,9,11,2,5,4,2
4,11,6,7,1,2,4,8,2
1,8,9,12,4,1,5,7,2
2,1,9,1,2,3,8,9,2
14,20,0,1,2,5,8,1,2
39,7,10,5,0,1,6,2,2
38,7,1,0,5,1,3,4,2
82,66,30,5,4,5,6,12,2
11,9,12,34,16,7,25,11,2
13,16,9,4,2,1,16,0,2
7,1,6,15,10,4,2,12,2
6,9,13,2,2,2,0,8,2
27,17,6,7,2,0,3,16,2
3,2,3,7,8,2,3,4,2
14,2,6,3,2,1,1,21,2
18,27,12,14,12,5,9,12,2
9,5,4,2,3,3,0,11,2
19,12,1,6,3,3,2,13,2
25,0,4,8,1,1,6,20,2
4,23,6,10,8,1,6,15,2
3,16,5,6,1,1,4,0,2
8,8,13,3,2,0,13,0,2
36,21,7,12,9,1,9,1,2
58,22,2,2,4,6,37,18,2
19,12,9,3,1,2,25,15,2
34,1,1,5,0,2,6,42,2
21,34,13,16,10,6,7,28,2
41,51,15,20,14,3,9,11,2
1,21,13,2,7,3,5,18,2
29,1,5,5,1,7,11,25,2
2,10,6,2,3,1,3,3,2
24,6,17,4,2,4,7,5,2
20,15,12,3,4,6,6,9,2
12,12,3,6,10,5,0,2,2
13,4,3,24,13,6,0,4,2
25,14,14,8,6,2,8,18,2
17,16,6,5,4,0,1,15,2
59,63,5,4,6,4,2,13,2
18,4,16,25,8,5,0,7,2
5,3,5,5,0,3,0,11,2
18,8,1,6,11,7,3,4,2
0,0,22,4,6,0,8,20,2
11,6,18,5,7,5,8,10,2
26,12,2,5,3,1,5,0,2
7,4,2,10,2,6,11,8,2
25,32,3,8,20,1,1,3,2
1,1,3,5,7,4,0,1,2
20,21,10,3,0,1,0,12,2
9,14,4,1,1,1,8,7,2
26,25,3,7,0,0,0,5,2
44,50,1,14,6,7,3,0,2
81,79,3,14,14,8,9,8,2
17,29,7,1,1,0,7,4,2
9,16,6,7,1,3,1,8,2
28,12,14,20,6,3,2,29,2
56,21,3,7,5,2,1,15,2
3,7,2,3,2,2,8,10,2
12,6,2,4,1,8,1,10,2
28,0,3,1,2,1,2,10,2
38,25,6,1,4,0,4,9,2
7,3,6,12,4,2,3,2,2
6,1,5,7,3,2,9,6,2
10,4,7,9,19,11,5,9,2
1,12,7,14,7,1,10,24,2
4,4,3,9,5,1,13,8,2
2,4,3,11,7,3,4,8,2
6,9,11,12,7,0,6,39,2
29,0,18,18,9,3,4,10,2
35,14,8,1,1,0,1,5,2
16,32,9,8,6,8,8,10,2
83,49,3,9,0,4,4,3,2
63,53,3,2,2,3,16,35,2
18,25,1,6,0,3,8,14,2
3,7,16,13,2,1,2,3,2
24,13,4,9,5,1,11,10,2
9,5,3,15,12,8,17,13,2
10,2,2,9,2,4,7,3,2
13,0,1,2,4,7,4,14,2
13,1,11,0,1,2,10,0,2
18,9,10,5,6,1,7,11,2
17,8,5,7,3,7,8,2,2
13,8,1,5,8,7,19,25,2
26,54,1,5,3,1,24,32,2
24,24,2,10,4,1,7,23,2
29,29,14,23,13,2,3,1,2
66,6,9,10,6,1,1,11,2
8,25,2,18,20,13,20,18,2
2,13,8,7,4,1,4,2,2
25,13,2,5,4,3,2,6,2
17,21,12,1,2,3,2,7,2
15,6,11,8,11,6,1,13,2
1,23,14,10,5,3,9,10,2
9,9,4,11,4,0,8,14,2
20,25,5,7,15,7,6,1,2
7,29,11,3,2,2,4,5,2
22,27,5,17,11,9,7,34,2
9,4,3,6,2,5,14,1,2
8,8,11,1,11,0,20,9,2
14,6,22,14,0,2,2,2,2
84,30,9,5,5,2,1,17,2
35,38,23,4,1,3,11,18,2
7,1,3,2,1,1,13,6,2
7,14,2,12,4,1,2,9,2
5,24,5,3,1,5,16,14,2
22,25,10,7,3,1,0,4,2
16,29,20,3,1,4,5,23,2
23,37,18,4,7,3,5,22,2
5,18,27,8,2,4,1,4,2
6,4,0,7,9,4,4,4,2
4,2,2,9,5,3,5,5,2
6,5,8,2,4,2,5,1,2
41,22,7,1,4,3,4,12,2
1,14,9,13,8,6,2,7,2
16,12,19,22,12,9,0,9,2
3,9,2,6,0,2,7,10,2
14,16,1,3,4,4,10,1,2
71,43,19,9,0,2,12,9,2
14,2,6,11,1,2,6,3,2
8,9,20,4,2,2,7,12,2
13,14,13,12,10,4,1,7,2
30,15,3,2,1,3,5,2,2
18,22,4,3,12,1,1,12,2
7,5,8,8,0,0,6,7,2
16,29,10,5,2,6,14,4,2
12,12,17,8,5,1,6,13,2
18,30,1,2,1,2,3,6,2
12,4,4,9,0,5,15,3,2
18,8,6,12,10,7,9,8,2
45,64,8,19,7,1,1,18,2
77,90,33,21,8,2,11,14,2
16,14,6,4,1,0,4,13,2
19,16,0,8,4,7,14,9,2
45,55,8,9,7,5,7,8,2
31,21,28,6,5,7,16,7,2
8,13,17,12,3,1,9,0,2
4,26,24,34,21,8,7,12,2
6,10,1,2,3,5,12,15,2
12,15,22,12,6,10,5,4,2
8,11,16,17,9,4,8,6,2
9,12,9,20,15,5,7,3,2
19,7,2,3,9,3,2,2,2
10,10,1,2,4,1,2,20,2
0,9,8,9,7,6,0,36,2
8,13,2,14,5,8,11,18,2
4,5,10,9,10,7,14,5,2
45,9,17,17,7,1,3,3,2
32,21,16,2,10,12,13,22,2
23,30,10,1,1,3,2,1,2
7,10,1,9,9,4,1,3,2
26,19,2,2,6,4,6,21,2
10,7,6,0,2,6,2,8,2
7,60,12,15,9,4,9,7,2
42,14,1,1,2,6,8,6,2
3,2,13,11,1,3,6,4,2
16,1,11,0,2,1,0,11,2
7,41,17,7,6,3,1,6,2
10,2,10,1,1,1,0,4,2
2,28,17,15,12,5,2,3,2
5,28,3,4,3,3,2,12,2
44,13,3,2,12,0,1,35,2
31,15,1,3,6,4,8,18,2
8,19,8,1,0,2,5,4,2
6,7,9,1,1,2,8,3,2
6,13,7,5,2,4,11,12,2
64,53,6,1,4,6,5,21,2
4,27,1,4,2,5,5,3,2
11,6,0,11,2,1,12,7,2
8,12,11,18,12,5,8,0,2
8,6,6,17,12,2,5,4,2
2,5,3,0,8,4,1,2,2
33,1,14,9,2,0,1,10,2
81,5,1,2,4,7,18,48,2
18,7,10,6,1,6,24,18,2
1,1,7,1,6,2,10,0,2
20,7,14,4,0,1,12,2,2
13,21,11,9,2,1,6,5,2
28,15,2,1,6,0,3,3,2
24,7,7,2,7,1,2,22,2
26,30,4,1,7,5,9,5,2
17,7,6,2,3,1,3,6,2
10,12,2,14,13,2,1,3,2
1,5,10,2,1,2,7,10,2
13,2,6,5,9,6,1,4,2
19,23,8,5,3,3,4,2,2
69,66,28,3,4,4,6,7,2
8,24,16,14,3,3,3,15,2
1,52,25,37,15,7,10,7,2
3,11,4,4,1,8,1,0,2
13,32,0,3,2,1,22,8,2
6,21,0,0,8,4,3,25,2
10,10,3,12,5,1,6,19,2
16,0,16,1,1,0,5,7,2
6,26,10,12,7,1,4,6,2
3,16,7,0,5,4,5,1,2
6,18,7,4,1,5,1,0,2
23,8,5,8,0,2,2,3,2
1,12,5,7,10,0,4,2,2
14,7,13,9,10,3,7,2,2
3,18,13,8,3,1,4,6,2
1,21,10,4,1,3,4,5,2
11,15,4,4,1,2,1,3,2
2,2,7,3,4,2,2,3,2
2,4,0,1,3,3,10,10,2
35,20,3,12,1,1,11,44,2
35,34,4,2,4,5,26,42,2
54,57,14,2,1,3,14,10,2
11,10,21,25,18,9,8,10,2
14,16,12,18,10,1,8,7,2
19,20,9,1,2,0,11,12,2
17,13,6,13,4,2,8,5,2
9,15,10,12,3,1,9,10,2
14,21,21,11,4,2,3,14,2
0,15,6,4,1,4,2,13,2
23,12,1,8,4,2,2,3,2
17,6,10,9,6,1,1,6,2
29,22,5,6,14,6,1,0,2
17,6,11,10,2,2,12,9,2
9,29,4,2,8,1,1,15,2
2,27,4,0,1,4,6,15,2
20,18,14,9,2,4,15,16,2
3,4,6,9,10,7,7,2,2
27,4,5,1,3,4,15,21,2
12,1,2,1,8,1,1,5,2
2,22,1,3,13,9,9,1,2
13,39,18,7,2,0,10,22,2
3,14,8,12,6,7,1,4,2
5,23,12,2,5,1,1,5,2
6,12,2,2,2,4,4,8,2
13,27,8,4,4,0,4,7,2
7,6,7,5,6,2,14,15,2
3,5,4,6,2,6,10,12,2
12,9,7,6,4,3,1,6,2
12,12,4,6,0,2,3,8,2
0,2,2,8,2,5,4,15,2
10,13,17,15,14,4,8,23,2
36,28,9,24,13,5,22,28,2
6,20,0,5,3,1,5,4,2
68,49,15,3,2,1,16,16,2
11,10,3,7,6,3,12,4,2
1,14,5,8,6,6,4,18,2
11,3,2,5,7,3,0,13,2
8,42,2,12,3,1,4,6,2
1,17,1,5,5,1,10,11,2
26,5,4,2,1,1,9,0,2
5,29,8,7,2,1,3,3,2
12,21,9,7,5,4,8,2,2
7,14,3,10,9,3,12,17,2
18,23,0,0,3,3,4,6,2
10,13,8,1,2,5,4,1,2
9,10,4,7,2,2,11,14,2
5,5,9,6,6,5,9,8,2
38,16,9,1,7,2,12,10,2
1,12,4,0,2,0,1,5,2
20,3,13,2,1,5,2,22,2
7,1,5,2,0,2,3,8,2
25,3,14,8,5,3,1,10,2
18,5,6,4,13,2,11,6,2
30,40,8,16,15,8,1,12,2
8,0,2,5,4,5,9,10,2
9,28,15,19,14,13,27,12,2
22,5,12,19,8,5,2,4,2
21,16,3,14,9,1,1,2,2
30,25,15,0,1,1,4,13,2
15,10,10,4,2,1,7,14,2
9,6,3,0,4,1,2,15,2
16,6,5,2,6,0,9,17,2
1,29,2,18,14,1,4,3,2
3,9,14,8,6,7,4,36,2
11,15,8,9,0,0,5,14,2
62,37,6,9,8,4,5,11,2
65,26,22,12,9,6,4,10,2
41,45,21,13,7,2,11,6,2
21,13,1,4,1,0,4,5,2
12,8,6,2,2,0,6,14,2
31,30,13,18,15,1,5,31,2
32,71,16,7,6,8,4,5,2
9,29,14,5,2,1,0,18,2
1,7,4,2,1,4,4,3,2
15,2,3,2,2,2,6,19,2
34,27,15,23,10,4,2,12,2
14,9,3,22,17,2,0,33,2
10,57,15,9,13,4,5,38,2
2,17,3,8,2,4,1,18,2
40,40,6,10,3,1,3,7,2
54,48,9,6,14,7,2,17,2
12,0,6,5,1,0,0,6,2
5,13,11,3,2,1,1,5,2
18,34,15,3,2,3,3,6,2
42,6,5,7,2,1,4,11,2
5,19,2,2,2,0,5,13,2
1,14,4,0,1,5,13,13,2
7,37,18,21,15,6,3,11,2
2,18,4,4,7,1,10,14,2
4,24,15,8,5,4,6,6,2
22,44,11,2,7,0,5,9,2
12,3,6,2,2,5,17,23,2
26,6,1,2,7,3,20,21,2
12,4,7,6,4,0,4,7,2
6,19,3,14,5,5,25,16,2
6,7,3,1,3,6,7,5,2
74,2,0,3,3,1,5,26,2
24,7,9,11,3,2,2,1,2
56,30,11,22,3,2,0,7,2
12,11,10,10,4,1,0,10,2
74,1,23,24,4,3,7,38,2
14,8,11,9,3,0,8,7,2
5,3,15,4,6,7,2,5,2
7,23,3,6,2,1,13,5,2
29,4,8,3,3,6,5,17,2
3,10,5,9,10,6,19,14,2
13,18,4,2,3,5,1,10,2
12,6,16,6,5,4,0,2,2
2,26,7,11,4,4,3,0,2
20,28,11,14,12,6,7,4,2
10,31,8,7,6,2,6,2,2
20,8,2,15,4,5,17,1,2
9,32,10,12,3,2,0,34,2
16,3,3,6,2,4,5,5,2
28,12,3,24,7,4,4,0,2
35,3,1,3,2,7,17,31,2
25,29,4,19,3,2,15,44,2
16,24,19,6,4,5,13,16,2
4,15,2,11,15,11,18,8,2
1,3,2,4,6,4,8,0,2
25,5,3,3,6,1,2,21,2
24,14,0,4,6,1,3,18,2
1,35,1,13,5,0,5,8,2
5,25,6,11,3,2,2,1,2
24,22,30,28,15,8,6,7,2
11,7,8,19,10,3,0,14,2
77,42,8,1,2,1,6,27,2
27,0,0,7,0,0,6,7,2
11,25,5,3,5,5,0,11,2
26,37,15,19,7,5,1,9,2
2,9,0,1,1,2,0,21,2
48,1,4,3,2,0,12,13,2
11,11,5,0,2,2,9,11,2
27,29,1,8,13,8,1,25,2
5,1,7,13,5,1,0,1,2
13,70,23,24,8,1,6,10,2
15,10,5,6,6,2,10,7,2
16,7,8,16,8,3,17,23,2
79,31,22,15,12,1,0,38,2
1,6,19,10,4,1,3,3,2
30,5,10,1,2,6,7,9,2
2,3,3,7,6,5,21,5,2
8,30,12,12,11,2,20,14,2
2,20,23,4,3,1,10,2,2
22,26,9,1,6,5,12,14,2
5,21,1,6,6,7,5,11,2
0,2,10,11,11,3,5,5,2
15,1,26,27,10,5,1,19,2
42,15,8,11,14,1,4,25,2
7,15,5,2,0,4,3,0,2
14,20,3,1,3,2,5,1,2
22,11,9,10,2,1,1,8,2
27,8,3,1,1,4,4,7,2
0,52,9,12,5,2,1,11,2
19,16,6,3,1,2,1,2,2
62,61,5,2,2,1,1,2,2
8,5,9,1,4,2,7,3,2
15,5,12,9,2,3,15,18,2
11,8,6,23,7,1,19,36,2
26,6,14,4,2,3,20,13,2
24,15,5,4,4,3,2,8,2
2,14,7,2,5,5,6,15,2
5,18,4,7,1,3,17,31,2
32,27,14,5,5,1,4,26,2
33,8,1,8,6,2,11,3,2
51,4,5,6,4,3,11,6,2
3,12,1,5,0,0,3,3,2
17,70,16,9,3,4,12,7,2
29,26,10,9,1,3,1,7,2
18,6,17,2,1,1,2,5,2
65,72,31,23,15,4,1,0,2
18,24,3,5,2,3,12,9,2
11,11,10,3,2,3,3,37,2
6,9,8,15,4,1,11,40,2
26,30,2,8,4,5,10,14,2
6,28,13,2,2,3,2,5,2
12,10,0,1,4,1,4,6,2
15,10,5,7,4,4,18,25,2
13,26,6,0,7,3,3,4,2
9,9,0,6,1,3,0,3,2
28,19,21,28,10,5,5,5,2
14,11,7,24,14,4,14,4,2
11,1,17,11,7,3,0,2,2
9,2,18,1,2,5,8,14,2
14,9,3,4,2,2,4,13,2
30,32,14,12,5,5,4,6,2
57,41,5,8,6,4,22,3,2
9,10,9,7,4,5,1,4,2
38,38,10,10,12,8,2,23,2
9,4,17,12,10,6,2,27,2
4,9,8,7,3,2,10,9,2
3,38,2,2,1,2,0,3,2
35,47,8,2,6,4,14,8,2
12,45,5,34,9,4,4,14,2
21,25,1,18,5,3,5,6,2
4,7,18,12,2,0,2,1,2
9,20,8,17,5,0,13,6,2
54,13,7,5,3,4,1,19,2
44,27,4,1,4,6,11,27,2
2,8,1,6,0,0,3,7,2
28,25,4,9,2,0,1,10,2
11,18,6,2,5,7,1,8,2
37,3,18,24,5,5,8,16,2
19,8,6,10,4,4,11,0,2
8,44,1,4,2,4,9,26,2
3,2,1,2,9,3,10,13,2
9,11,1,4,5,2,2,4,2
5,11,15,19,5,4,10,10,2
3,2,4,4,3,3,6,22,2
0,10,10,11,2,1,4,1,2
26,10,6,2,2,0,7,11,2
2,27,7,13,4,2,3,1,2
1,36,6,1,3,4,1,1,2
27,10,5,0,4,1,7,2,2
18,5,3,7,0,0,5,1,2
10,3,2,4,6,2,2,5,2
20,11,2,3,8,1,3,3,2
69,66,7,5,8,1,8,36,2
16,6,4,12,1,4,2,5,2
7,13,11,14,8,5,3,7,2
53,37,7,7,7,2,4,6,2
31,13,11,11,16,6,5,11,2
11,8,2,17,10,1,8,19,2
15,9,5,8,9,3,7,21,2
25,11,1,3,7,5,0,13,2
1,14,1,2,1,7,7,1,2
8,10,7,5,4,7,1,3,2
8,16,6,1,4,6,10,11,2
19,2,10,4,9,0,0,3,2
5,4,14,18,11,2,4,10,2
12,13,24,27,10,3,9,5,2
7,11,2,1,3,7,9,8,2
2,4,12,13,9,8,3,10,2
6,9,15,4,2,2,7,5,2
8,24,1,14,3,4,6,14,2
56,41,2,7,7,3,6,3,2
5,5,5,0,1,4,13,10,2
16,23,2,14,6,3,18,2,2
16,65,1,17,8,0,22,8,2
25,31,3,6,1,3,8,3,2
10,1,3,2,5,3,9,17,2
56,61,15,2,3,6,19,26,2
17,41,9,8,5,1,2,12,2
18,2,4,8,5,1,7,13,2
0,20,14,16,15,5,9,4,2
15,8,7,15,10,3,3,7,2
26,18,6,9,12,2,5,4,2
12,18,2,3,8,5,18,10,2
4,15,8,1,3,2,15,9,2
15,12,2,6,1,2,8,10,2
2,13,8,14,6,5,14,9,2
5,12,1,4,7,0,2,7,2
10,11,3,8,3,7,10,3,2
3,10,4,10,0,2,18,16,2
40,3,0,8,9,8,9,5,2
26,18,1,7,5,8,20,18,2
3,11,8,13,6,5,13,15,2
0,17,5,7,9,7,7,9,2
20,12,5,9,7,1,16,25,2
6,4,19,18,10,0,13,9,2
14,2,8,16,10,4,15,5,2
27,4,3,5,3,2,3,4,2
46,27,14,16,4,4,0,1,2
11,4,14,24,4,1,3,9,2
4,23,12,2,12,8,26,7,2
14,36,6,6,2,6,5,12,2
13,14,5,2,7,1,8,3,2
12,1,3,2,5,1,6,6,2
16,9,4,2,3,2,2,1,2
10,11,3,19,22,5,2,2,2
39,21,3,2,0,0,9,8,2
7,0,5,6,2,1,5,21,2
28,32,15,1,3,2,7,21,2
25,80,5,18,12,3,5,8,2
8,7,10,9,7,2,6,0,2
3,4,9,4,7,1,1,14,2
2,5,16,17,10,3,3,3,2
47,18,6,8,7,0,6,14,2
60,41,6,9,7,2,3,17,2
9,5,7,16,8,4,1,1,2
14,4,8,12,11,3,2,3,2
0,9,1,5,2,0,10,48,2
18,8,6,3,2,4,5,46,2
8,0,17,5,12,2,14,7,2
17,20,15,1,3,3,24,15,2
14,18,5,10,7,0,4,12,2
27,6,7,9,9,1,1,17,2
17,24,2,9,10,4,0,2,2
1,6,13,16,9,1,11,22,2
79,63,17,1,1,1,11,41,2
33,3,5,4,3,4,6,16,2
8,7,3,0,5,6,8,2,2
10,23,7,7,3,6,6,2,2
2,3,13,19,8,3,1,2,2
8,12,8,4,5,2,11,31,2
6,26,9,10,5,9,8,22,2
13,8,11,21,6,1,2,7,2
46,13,11,15,5,4,12,1,2
54,0,4,3,0,2,2,6,2
4,16,2,1,0,2,3,3,2
1,4,17,8,1,3,8,1,2
21,3,7,12,2,1,4,12,2
13,3,2,3,1,1,8,8,2
1,2,1,8,5,3,21,13,2
7,1,1,14,6,2,17,11,2
5,28,1,6,7,0,1,1,2
25,11,6,2,5,2,6,21,2
81,55,14,11,5,1,6,23,2
53,9,8,1,4,1,1,15,2
3,32,7,5,2,4,2,2,2
15,5,10,3,5,2,5,12,2
10,6,10,7,4,6,10,3,2
1,62,18,25,8,4,1,4,2
2,8,10,3,3,3,8,5,2
7,19,1,16,2,2,6,9,2
24,22,16,11,7,5,4,5,2
69,33,10,7,2,0,7,16,2
18,5,4,3,2,4,1,7,2
25,19,12,12,13,9,16,18,2
11,14,5,4,8,5,7,10,2
8,9,17,0,1,4,13,16,2
9,10,15,2,6,2,14,4,2
43,27,7,1,3,4,4,4,2
59,6,26,16,2,0,0,18,2
4,57,2,7,4,1,10,1,2
6,25,11,6,3,2,15,9,2
31,21,1,2,12,5,12,28,2
31,19,5,6,2,1,3,38,2
16,5,7,5,0,2,3,1,2
5,16,4,1,4,9,16,0,2
16,7,5,7,4,2,1,5,2
6,18,7,1,4,2,9,4,2
24,32,10,11,1,2,3,5,2
72,2,14,9,2,3,10,26,2
16,41,8,0,4,3,6,4,2
2,24,9,0,5,1,1,9,2
10,44,10,3,12,3,10,2,2
7,45,8,24,18,9,7,20,2
42,55,12,12,8,3,8,16,2
13,9,11,13,6,1,1,3,2
8,8,1,5,7,4,7,2,2
13,6,7,2,4,4,8,2,2
5,30,5,5,0,2,14,32,2
15,1,9,1,2,3,3,38,2
4,31,20,5,7,4,7,7,2
3,8,6,14,9,0,2,1,2
9,15,10,8,7,3,4,6,2
2,7,6,2,2,4,1,1,2
14,26,24,23,11,3,7,6,2
16,9,12,3,5,7,12,8,2
6,26,4,13,3,2,7,8,2
7,22,12,0,2,4,6,3,2
9,7,8,6,4,2,6,0,2
4,6,8,18,1,5,8,5,2
38,57,27,15,4,2,3,10,2
8,10,4,0,2,7,0,1,2
11,17,15,0,2,0,3,16,2
40,29,2,8,2,1,9,24,2
3,52,22,19,12,7,2,7,2
27,14,7,3,4,0,19,15,2
16,17,6,8,2,4,5,0,2
2,6,12,24,9,2,0,19,2
5,4,8,13,9,5,6,11,2
3,12,4,6,2,5,7,10,2
0,14,10,11,1,0,4,19,2
4,18,0,14,22,6,2,6,2
6,10,4,2,0,6,12,12,2
17,1,18,8,4,5,12,8,2
5,22,10,1,1,1,1,7,2
18,53,11,15,12,1,5,14,2
21,22,8,4,11,5,1,3,2
7,9,1,14,16,0,4,1,2
0,0,12,4,2,6,8,8,2
26,10,15,5,7,1,1,6,2
32,32,10,2,2,2,8,1,2
4,6,6,3,7,11,16,21,2
1,5,16,3,6,3,5,14,2
14,7,14,7,4,0,0,2,2
1,15,17,10,2,3,15,12,2
2,4,5,8,7,1,8,6,2
3,4,16,14,12,2,1,9,2
1,24,1,1,1,0,4,6,2
7,4,11,8,7,4,4,3,2
7,7,6,3,2,2,4,5,2
4,5,16,19,6,2,6,8,2
20,61,23,19,5,2,6,7,2
11,10,3,2,7,2,6,11,2
9,6,10,10,6,1,0,8,2
12,5,0,0,2,1,3,5,2
19,3,7,15,11,1,14,0,2
20,41,2,18,10,2,9,3,2
10,19,2,5,2,4,2,7,2
2,2,3,4,0,2,7,15,2
7,25,8,2,4,2,9,1,2
36,0,10,8,8,0,7,7,2
13,28,8,10,5,1,4,16,2
6,59,4,8,1,5,11,10,2
6,30,12,8,3,5,0,10,2
8,21,4,4,0,1,3,4,2
5,2,4,6,11,1,1,1,2
12,15,1,11,11,0,0,7,2
6,19,1,5,8,2,2,7,2
2,9,4,9,1,2,5,2,2
3,14,5,5,2,0,7,2,2
9,7,8,8,7,0,6,1,2
0,5,9,11,9,2,0,2,2
9,24,10,4,5,2,8,12,2
24,2,7,8,15,4,12,11,2
31,23,7,8,0,3,0,19,2
8,2,13,6,0,1,4,10,2
10,13,4,8,1,3,6,12,2
8,24,9,2,3,0,1,8,2
47,37,9,8,4,2,17,1,2
97,40,6,1,1,7,2,34,2
68,2,2,11,5,0,6,41,2
19,12,2,0,1,1,2,3,2
15,1,8,6,0,2,8,4,2
26,11,2,8,9,0,8,13,2
40,31,5,3,1,4,5,11,2
3,1,9,1,3,0,7,7,2
29,43,7,8,10,3,9,4,2
29,17,17,21,17,6,5,12,2
21,11,5,4,2,7,11,18,2
18,12,1,6,7,5,9,7,2
15,3,16,21,0,2,5,0,2
14,5,4,1,0,2,1,1,2
21,22,1,3,0,4,2,4,2
15,0,16,3,1,5,14,22,2
41,55,5,4,2,3,9,7,2
5,44,0,8,3,2,6,31,2
27,6,3,8,11,7,12,9,2
19,17,1,17,9,0,8,1,2
4,1,5,3,6,4,3,22,2
6,14,2,1,2,3,8,0,2
19,12,4,6,1,4,3,4,2
21,19,0,9,12,3,6,6,2
15,3,3,10,10,2,2,2,2
3,24,7,4,6,1,9,14,2
21,13,1,0,9,4,8,8,2
9,8,7,5,2,1,0,8,2
6,4,6,20,2,0,5,1,2
14,12,4,8,3,1,1,7,2
22,8,14,16,11,5,4,5,2
25,64,13,10,7,2,9,7,2
22,38,3,1,8,5,8,9,2
1,5,2,1,1,2,2,7,2
7,43,21,7,3,3,2,4,2
16,3,2,4,2,2,11,15,2
35,35,7,4,5,1,6,1,2
29,17,10,3,5,6,5,13,2
32,14,26,12,5,1,6,2,2
30,21,1,3,2,4,2,15,2
8,13,2,1,1,0,5,6,2
13,20,4,1,1,5,3,4,2
3,4,3,9,1,3,18,16,2
25,45,1,13,7,0,8,4,2
1,5,1,4,1,5,5,3,2
7,0,2,13,9,6,3,4,2
4,7,3,4,2,0,11,8,2
7,24,6,15,7,1,2,8,2
5,2,18,16,12,1,0,20,2
3,17,8,10,12,4,7,0,2
7,13,1,5,5,6,11,6,2
16,16,2,2,5,8,18,3,2
8,1,10,11,5,2,12,7,2
14,1,3,10,3,4,3,4,2
8,23,7,1,2,2,3,1,2
5,5,3,3,5,2,2,10,2
1,2,0,14,7,4,14,2,2
17,16,9,14,10,1,10,2,2
5,1,9,6,3,1,34,7,2
7,4,3,6,9,6,6,31,2
13,11,10,8,1,4,11,5,2
7,0,2,7,3,0,5,4,2
10,8,11,14,7,1,26,17,2
0,25,4,12,9,6,2,3,2
7,2,12,8,4,0,7,18,2
8,17,2,1,3,3,4,18,2
15,9,10,0,0,2,3,27,2
2,6,16,8,3,3,6,3,2
1,6,2,12,6,1,10,5,2
4,14,8,3,11,3,1,17,2
1,10,5,3,1,3,7,6,2
7,31,2,14,13,5,24,10,2
12,22,9,2,3,2,13,12,2
7,24,21,16,5,1,15,10,2
13,4,17,9,7,4,21,13,2
11,24,20,14,8,6,2,5,2
15,7,7,1,5,2,13,20,2
4,9,4,1,2,3,15,15,2
3,3,3,11,20,5,28,24,2
1,20,1,2,6,3,8,16,2
8,24,1,1,1,1,3,1,2
10,10,5,6,6,1,2,12,2
7,8,3,9,5,4,6,23,2
10,50,10,4,1,6,13,18,2
16,7,1,3,5,0,1,16,2
5,8,3,6,1,5,2,12,2
4,4,5,2,2,2,8,0,2
4,14,4,1,4,1,8,12,2
6,52,17,7,7,4,1,7,2
2,2,8,13,4,1,2,2,2
3,22,17,15,10,7,1,1,2
6,10,7,1,4,2,5,4,2
1,11,1,11,8,4,6,6,2
2,6,8,7,13,5,6,13,2
23,5,12,4,2,0,7,13,2
9,13,4,7,6,2,5,9,2
9,20,3,14,12,4,9,15,2
4,3,0,2,1,2,10,10,2
14,8,7,0,4,2,12,2,2
47,23,3,4,11,3,6,4,2
18,27,4,7,5,1,7,6,2
4,6,1,5,2,1,2,4,2
12,3,16,12,3,5,5,1,2
9,43,10,14,2,3,16,28,2
4,1,4,0,4,4,1,22,2
9,19,3,2,4,0,3,3,2
5,2,1,7,2,0,1,7,2
17,14,1,6,2,2,0,8,2
10,8,4,8,6,1,1,9,2
2,6,8,22,14,5,11,12,2
18,30,4,9,1,2,5,3,2
12,34,0,11,9,1,6,11,2
2,14,15,25,13,0,1,5,2
2,2,8,15,13,1,3,15,2
11,3,1,11,16,3,8,1,2
7,10,5,7,5,9,12,9,2
16,21,17,11,5,5,6,0,2
11,12,6,9,11,1,12,5,2
15,16,1,1,3,2,7,8,2
11,14,10,1,3,0,3,5,2
9,3,5,12,6,9,3,4,2
2,2,3,5,2,2,3,4,2
0,2,1,3,3,3,5,18,2
8,33,6,3,7,4,9,28,2
1,8,1,3,3,2,2,6,2
4,6,3,10,12,1,0,0,2
82,54,23,16,17,1,1,17,2
6,22,8,5,7,3,18,2,2
14,2,4,3,2,3,11,6,2
4,13,7,14,5,1,5,20,2
37,1,5,4,7,7,2,10,2
7,4,15,5,9,0,11,0,2
21,16,1,6,6,1,5,5,2
11,12,11,13,9,1,2,7,2
3,16,8,2,1,2,5,13,2
11,14,9,0,3,1,2,4,2
19,4,4,9,11,2,4,3,2
15,7,5,1,2,2,1,15,2
2,1,9,11,3,3,0,12,2
0,7,10,31,22,6,10,8,2
0,11,18,16,7,1,4,4,2
2,0,7,6,5,1,5,13,2
3,9,6,6,3,3,5,13,2
1,6,4,1,1,3,4,9,2
16,6,7,1,3,0,3,1,2
5,7,8,5,3,3,3,1,2
15,9,10,6,11,8,0,2,2
3,6,7,14,8,3,7,21,2
4,2,1,5,1,3,10,9,2
2,4,3,2,1,0,3,4,2
5,28,4,10,17,1,4,9,2
11,1,21,26,16,0,8,13,2
28,36,13,4,0,6,21,11,2
1,2,2,1,1,1,4,2,2
1,1,17,7,3,0,2,3,2
3,6,16,13,4,7,2,2,2
7,15,2,3,1,2,3,8,2
5,10,8,6,4,3,11,4,2
2,1,10,5,1,2,11,9,2
13,12,0,9,8,6,16,1,2
12,5,13,31,15,2,2,5,2
3,38,3,8,2,1,6,1,2
22,10,2,3,2,4,0,4,2
12,47,9,5,2,0,11,2,2
19,16,10,10,3,8,3,11,2
5,4,0,3,6,8,9,14,2
3,1,2,6,7,1,3,8,2
5,13,3,5,8,3,4,31,2
12,24,10,6,4,6,16,21,2
10,22,6,4,2,1,12,13,2
23,28,3,3,1,3,3,12,2
2,14,13,5,6,3,8,5,2
0,25,0,3,3,0,7,17,2
43,32,7,1,0,4,12,4,2
28,19,0,2,4,0,1,20,2
2,10,11,17,7,2,2,0,2
17,21,5,0,4,1,7,3,2
12,8,5,1,8,5,7,4,2
19,38,6,4,2,5,5,9,2
15,2,4,6,2,0,4,7,2
2,11,2,4,5,10,11,14,2
17,3,5,1,1,1,3,6,2
4,5,4,3,3,5,12,2,2
11,6,7,2,5,7,14,6,2
33,40,6,4,4,9,16,13,2
22,27,1,2,0,2,7,1,2
13,15,8,8,11,9,11,23,2
8,8,0,2,2,2,12,40,2
3,3,8,1,2,0,13,9,2
15,1,4,2,2,0,5,13,2
3,34,4,12,8,2,3,2,2
7,26,1,3,1,2,4,6,2
8,5,6,13,8,1,4,6,2
9,11,0,6,4,2,4,7,2
13,40,9,4,6,2,3,11,2
6,23,8,2,1,2,3,8,2
34,24,14,1,2,2,8,7,2
56,58,18,5,1,2,4,19,2
5,3,19,4,3,3,4,12,2
16,17,20,4,2,4,5,3,2
3,11,5,8,2,2,0,0,2
27,7,2,0,2,1,0,20,2
15,18,13,14,10,4,1,7,2
11,9,4,4,1,1,6,7,2
10,21,3,0,2,0,12,11,2
7,0,4,6,10,9,18,1,2
5,8,9,3,2,2,12,33,2
20,28,3,3,5,2,8,9,2
21,26,8,16,8,4,4,16,2
14,25,0,2,3,3,4,7,2
1,10,0,6,8,2,9,5,2
10,9,2,8,2,0,3,15,2
17,0,12,2,5,6,2,13,2
11,13,9,10,5,0,0,0,2
3,4,6,4,0,1,3,5,2
6,27,7,4,1,1,10,3,2
17,4,9,3,5,3,16,19,2
10,5,4,8,9,1,1,1,2
43,5,3,9,6,1,1,12,2
19,25,27,26,11,5,7,12,2
4,12,3,1,2,1,1,5,2
9,6,2,7,4,3,5,7,2
16,23,9,3,5,4,9,4,2
4,18,1,1,3,4,4,14,2
9,12,7,0,1,5,10,42,2
1,5,2,3,4,4,3,15,2
36,4,1,4,5,2,12,35,2
15,13,3,12,9,4,7,9,2
15,1,7,16,9,0,5,23,2
6,4,7,13,10,0,0,7,2
14,11,3,10,7,2,0,4,2
7,21,3,9,2,1,5,7,2
2,8,6,10,1,6,2,2,2
12,13,5,6,10,6,5,8,2
3,2,5,11,3,8,24,13,2
14,14,6,3,3,4,23,6,2
5,7,6,8,1,5,8,6,2
28,20,9,16,13,6,0,16,2
21,5,2,13,15,10,4,14,2
7,2,5,5,4,3,2,1,2
6,11,0,11,11,5,14,11,2
9,10,13,7,6,3,3,7,2
2,5,4,3,1,6,11,20,2
6,13,3,13,6,3,5,5,2
6,8,2,9,8,3,19,26,2
42,10,8,4,5,3,11,8,2
54,4,9,4,3,4,10,17,2
2,3,13,12,29,0,2,2,3
3,9,22,8,46,2,2,1,3
2,3,3,6,9,2,2,2,3
4,8,17,7,58,6,1,3,3
1,4,1,9,3,2,1,0,3
3,5,25,1,32,3,1,2,3
2,5,2,4,6,4,1,1,3
1,4,36,4,57,7,1,4,3
2,2,5,1,7,1,0,0,3
1,2,22,18,28,1,1,1,3
2,3,21,3,3,6,3,2,3
2,4,23,12,29,3,1,1,3
2,5,9,4,40,0,0,2,3
3,12,1,20,51,15,3,1,3
1,1,2,3,3,3,1,0,3
3,8,7,7,18,2,1,3,3
1,3,6,11,28,2,0,0,3
3,4,9,8,36,5,2,1,3
2,1,16,12,16,1,3,2,3
3,4,2,21,25,8,1,1,3
3,6,5,13,6,1,2,3,3
1,3,7,3,33,9,0,1,3
1,3,10,0,27,6,1,0,3
4,7,2,1,17,3,0,2,3
1,0,3,9,13,2,1,0,3
5,10,20,5,57,5,1,3,3
2,2,5,3,6,6,3,2,3
2,9,25,6,45,5,1,1,3
0,1,10,4,16,1,2,1,3
2,6,13,0,18,5,1,3,3
1,2,1,20,12,1,2,0,3
1,6,14,20,19,1,2,1,3
3,3,13,0,3,1,1,0,3
3,4,32,7,30,0,1,2,3
4,9,4,4,13,0,0,3,3
1,2,24,14,54,5,0,0,3
2,1,6,19,11,5,1,0,3
2,5,12,5,51,8,2,1,3
3,5,9,1,16,1,2,3,3
0,5,13,3,25,4,1,0,3
2,6,4,27,15,13,5,3,3
1,8,30,32,18,4,2,1,3
0,3,26,5,6,1,0,0,3
0,1,20,17,7,3,1,0,3
4,1,5,9,3,1,2,1,3
1,2,2,4,11,6,1,2,3
1,1,8,12,11,3,0,1,3
0,0,2,10,24,3,0,1,3
1,1,4,19,4,4,1,2,3
3,3,16,8,23,2,2,2,3
2,4,16,3,26,1,1,1,3
1,4,7,17,38,4,3,4,3
2,2,2,4,5,5,3,0,3
1,4,9,4,8,4,2,1,3
1,3,13,3,2,1,1,1,3
2,4,1,13,11,6,4,2,3
1,2,9,10,10,2,2,2,3
1,2,6,8,13,2,0,1,3
1,1,12,5,4,0,1,0,3
1,3,1,6,7,1,2,1,3
3,5,13,19,8,5,3,2,3
2,0,8,22,17,5,2,1,3
2,3,2,3,1,2,0,1,3
0,3,15,6,10,4,3,1,3
0,1,3,15,16,2,1,0,3
0,8,6,5,3,0,1,1,3
0,4,13,2,14,6,2,2,3
1,3,7,10,16,4,3,1,3
0,1,1,1,0,1,2,0,3
1,2,2,9,11,1,3,3,3
1,2,4,1,4,5,0,2,3
1,4,6,2,40,4,1,2,3
1,3,7,22,20,7,2,2,3
2,0,4,1,8,4,1,2,3
0,1,5,9,7,6,1,2,3
3,3,13,5,12,1,1,1,3
3,1,4,3,11,1,2,0,3
3,8,18,28,19,9,2,0,3
3,3,2,16,14,6,2,1,3
3,2,12,14,18,2,0,3,3
3,1,5,1,9,1,0,4,3
1,1,2,7,10,4,2,1,3
0,3,9,0,18,6,2,2,3
0,2,2,14,2,3,1,0,3
0,1,4,12,9,6,1,0,3
0,0,16,14,6,3,1,1,3
3,1,5,13,5,0,0,3,3
1,0,4,10,3,1,1,0,3
3,3,1,10,18,1,1,2,3
4,5,4,3,9,3,1,1,3
2,2,1,2,6,1,2,2,3
2,2,5,9,47,7,3,1,3
1,2,4,13,10,6,0,2,3
1,1,8,4,0,2,2,0,3
2,4,1,6,37,5,0,1,3
2,2,7,8,13,4,0,1,3
2,7,17,12,9,5,3,3,3
4,2,10,1,8,3,2,1,3
0,1,1,1,17,2,0,2,3
2,8,8,34,21,14,5,3,3
1,3,25,45,15,9,1,2,3
2,8,3,9,7,2,1,1,3
4,4,4,14,11,6,2,3,3
2,5,12,22,1,0,2,4,3
1,2,10,10,26,10,1,2,3
1,2,4,20,19,5,0,1,3
1,3,9,30,31,14,4,3,3
1,2,8,1,36,6,2,3,3
3,3,8,2,9,0,5,4,3
1,3,7,12,40,15,3,0,3
2,5,14,16,19,5,0,2,3
1,2,4,3,9,6,1,2,3
2,1,4,7,3,3,0,4,3
4,6,9,51,36,24,8,6,3
3,2,9,62,39,13,2,1,3
0,3,11,1,9,3,1,1,3
2,0,4,58,32,0,1,4,3
3,1,10,80,28,15,5,2,3
2,1,6,14,13,7,4,1,3
1,1,21,3,24,0,0,1,3
1,4,28,4,6,3,0,1,3
3,6,18,17,9,1,2,3,3
3,3,4,6,42,6,3,4,3
7,11,15,55,69,1,6,7,3
4,6,5,14,44,11,3,1,3
1,2,13,0,24,4,1,1,3
2,2,11,11,35,1,3,1,3
2,2,4,14,33,5,2,3,3
1,2,5,9,34,5,0,0,3
2,2,10,9,16,6,1,2,3
0,1,13,13,18,5,4,1,3
2,5,17,20,53,18,2,1,3
5,8,7,17,47,6,3,3,3
5,3,2,5,2,7,2,4,3
2,1,7,4,19,1,0,2,3
4,3,21,8,27,2,3,4,3
3,1,6,16,15,1,0,2,3
6,12,32,21,6,1,1,3,3
5,8,9,14,18,2,1,0,3
6,11,8,15,35,4,3,3,3
1,1,4,17,42,10,1,1,3
3,0,16,36,4,18,6,2,3
2,12,1,17,1,9,2,2,3
1,5,16,23,73,14,1,0,3
2,4,4,48,43,27,5,2,3
2,2,0,5,9,7,2,1,3
4,6,4,3,29,0,0,2,3
2,1,8,7,6,1,0,1,3
3,4,5,9,5,4,2,3,3
1,3,8,2,26,3,1,1,3
3,2,1,8,17,4,1,1,3
4,5,6,10,0,1,4,3,3
3,2,7,17,5,4,0,0,3
0,0,1,26,41,18,6,2,3
1,4,11,15,14,7,1,0,3
1,6,3,1,6,1,3,0,3
3,1,12,19,21,4,0,0,3
3,2,5,26,29,2,1,1,3
4,3,8,23,2,8,5,4,3
1,3,11,31,33,3,1,0,3
2,7,20,5,19,7,3,1,3
1,0,4,11,61,12,0,2,3
4,6,9,24,5,11,5,2,3
2,1,4,8,1,8,2,1,3
2,0,8,7,9,3,3,3,3
0,1,0,3,2,0,1,0,3
2,4,1,7,8,0,1,1,3
1,2,8,10,1,6,3,0,3
2,2,8,1,14,9,0,2,3
3,1,8,21,23,1,3,1,3
2,4,32,10,19,2,4,2,3
5,1,14,32,42,13,4,4,3
3,2,3,36,16,9,5,4,3
1,3,14,8,9,1,2,0,3
3,3,5,2,3,2,2,2,3
5,8,2,2,4,2,2,3,3
5,1,2,43,10,10,6,4,3
0,0,2,15,17,10,3,1,3
2,1,3,13,19,6,0,1,3
1,3,1,9,8,2,0,2,3
4,2,6,10,28,2,4,3,3
2,3,15,10,1,7,4,1,3
3,1,9,16,6,4,3,1,3
2,2,2,26,10,6,2,0,3
4,7,5,2,2,6,0,2,3
2,4,4,11,9,5,5,3,3
2,8,17,13,5,1,1,1,3
3,8,23,17,11,3,2,1,3
2,2,11,17,19,4,2,2,3
4,7,17,44,12,10,6,4,3
1,3,19,24,62,15,3,1,3
2,1,1,32,11,6,1,0,3
1,2,7,6,2,2,1,2,3
0,5,1,23,44,4,0,1,3
6,9,4,10,21,3,3,5,3
3,8,11,6,88,18,0,1,3
1,5,2,5,20,0,2,3,3
2,7,6,7,48,7,0,1,3
5,9,7,26,2,8,4,2,3
1,2,0,10,12,4,3,2,3
1,2,3,2,23,5,1,2,3
1,1,8,23,13,0,1,1,3
3,1,3,28,12,4,2,2,3
0,1,5,11,12,0,1,2,3
1,1,4,5,12,0,1,0,3
2,4,6,6,2,2,0,0,3
1,5,4,4,1,0,2,2,3
4,4,12,5,24,2,1,3,3
1,5,5,4,4,1,1,0,3
2,10,29,47,14,17,4,2,3
